Distance (in),Time (s),X (in),Y (in),Velocity (in/s),Orientation (deg),Touch,Way X (in),Way Y (in),Way Velocity (in/s),Way Orientation (deg),Way Turn Radius (in),Touch this Point
0.0,0.0,205.0,83.12,12.0,0.0,0,205.0,83.12,12.0,0.0,5.0,0.0
0.9999999999999873,0.07697306684040775,204.00976925741026,82.98056156760012,13.983114381380677,359.727659311719,0,168.64,78.0,96.0,350.0,3.0,0.0
1.9999999999999747,0.14375249470212254,203.0195385148205,82.84112313520023,15.966228762761354,359.45531862343796,0,102.0,65.0,84.0,305.0,7.0,0.0
2.999999999999962,0.20272245709844827,202.02930777223077,82.70168470280035,17.94934314414203,359.182977935157,0,78.0,57.0,36.0,305.0,20.0,0
3.9999999999999494,0.2555182578429876,201.03907702964102,82.56224627040046,19.932457525522707,358.910637246876,0,63.0,60.0,18.0,305.0,3.0,0
4.999999999999937,0.3033102334061253,200.04884628705128,82.42280783800058,21.915571906903384,358.63829655859496,0,,,,,,
5.9999999999999245,0.3469647653965628,199.05861554446153,82.2833694056007,23.89868628828406,358.36595587031394,0,,,,,,
6.999999999999912,0.387141150205523,198.0683848018718,82.14393097320081,25.881800669664738,358.0936151820329,0,,,,,,
7.9999999999999,0.4243527262652173,197.07815405928204,82.00449254080092,27.864915051045415,357.82127449375196,0,,,,,,
8.999999999999886,0.45900699694746877,196.0879233166923,81.86505410840104,29.84802943242609,357.54893380547094,0,,,,,,
9.999999999999874,0.4914328531115205,195.09769257410255,81.72561567600115,31.83114381380677,357.2765931171899,0,,,,,,
10.999999999999861,0.5218995718578837,194.1074618315128,81.58617724360127,33.81425819518745,357.0042524289089,0,,,,,,
11.999999999999849,0.5506304028673974,193.11723108892306,81.44673881120139,35.79737257656813,356.7319117406279,0,,,,,,
12.999999999999837,0.5778124928691014,192.12700034633332,81.3073003788015,37.78048695794881,356.4595710523469,0,,,,,,
13.999999999999824,0.6036042720223057,191.13676960374357,81.16786194640162,39.76360133932949,356.1872303640659,0,,,,,,
14.999999999999812,0.6281410432205676,190.14653886115383,81.02842351400173,41.74671572071017,355.9148896757849,0,,,,,,
15.9999999999998,0.6515392746388811,189.15630811856408,80.88898508160185,43.72983010209085,355.64254898750386,0,,,,,,
16.999999999999787,0.6738999405424946,188.16607737597434,80.74954664920196,45.71294448347153,355.37020829922284,0,,,,,,
17.999999999999773,0.695311152827267,187.1758466333846,80.61010821680208,47.696058864852205,355.0978676109419,0,,,,,,
18.99999999999976,0.7158502566285126,186.18561589079485,80.47066978440219,49.67917324623288,354.82552692266086,0,,,,,,
19.999999999999744,0.7355855158477344,185.1953851482051,80.3312313520023,51.66228762761355,354.55318623437984,0,,,,,,
20.99999999999973,0.754577481267368,184.20515440561536,80.19179291960242,53.645402008994225,354.2808455460988,0,,,,,,
21.999999999999716,0.7728801103786485,183.21492366302562,80.05235448720254,55.6285163903749,354.0085048578178,0,,,,,,
22.9999999999997,0.7905416910999847,182.22469292043587,79.91291605480265,57.61163077175557,353.73616416953683,0,,,,,,
23.999999999999687,0.8076056092035665,181.23446217784613,79.77347762240277,59.594745153136245,353.4638234812558,0,,,,,,
24.999999999999673,0.8241109901447072,180.24423143525638,79.63403919000288,61.57785953451692,353.1914827929748,0,,,,,,
25.99999999999966,0.8400932391784771,179.25400069266664,79.494600757603,63.56097391589759,352.9191421046938,0,,,,,,
26.999999999999645,0.8555844985118842,178.2637699500769,79.35516232520311,65.54408829727826,352.64680141641276,0,,,,,,
27.99999999999963,0.8706140363282839,177.27353920748715,79.21572389280323,67.52720267865894,352.3744607281318,0,,,,,,
28.999999999999616,0.8852085795148036,176.2833084648974,79.07628546040334,69.51031706003961,352.1021200398508,0,,,,,,
29.999999999999602,0.8993925995940943,175.29307772230766,78.93684702800346,71.49343144142028,351.82977935156975,0,,,,,,
30.999999999999588,0.9131885595420964,174.3028469797179,78.79740859560357,73.47654582280096,351.55743866328874,0,,,,,,
31.999999999999574,0.9266171277415417,173.31261623712817,78.65797016320369,75.45966020418163,351.2850979750077,0,,,,,,
32.99999999999956,0.9396973641861096,172.32238549453842,78.5185317308038,77.4427745855623,351.01275728672675,0,,,,,,
33.999999999999545,0.9524468831448821,171.33215475194868,78.37909329840392,79.42588896694298,350.74041659844573,0,,,,,,
34.99999999999953,0.964881995770068,170.34192400935893,78.23965486600403,81.40900334832365,350.4680759101647,0,,,,,,
35.99999999999952,0.9770178355441981,169.3516932667692,78.10021643360415,83.39211772970432,350.1957352218837,0,,,,,,
36.718714574450985,0.9856050328889621,168.64,78.0,84.0,349.7173159728108,0,,,,,,
37.718714574450985,0.9975097947937239,167.65850130613822,77.80853116716382,84.0,349.05165638264873,0,,,,,,
38.718714574450985,1.0094145566984858,166.67700261227645,77.61706233432764,84.0,348.38599679248665,0,,,,,,
39.718714574450985,1.0213193186032477,165.6955039184147,77.42559350149146,84.0,347.7203372023246,0,,,,,,
40.718714574450985,1.0332240805080095,164.71400522455292,77.23412466865528,84.0,347.0546776121625,0,,,,,,
41.718714574450985,1.0451288424127714,163.73250653069115,77.0426558358191,84.0,346.3890180220004,0,,,,,,
42.718714574450985,1.0570336043175332,162.7510078368294,76.85118700298293,84.0,345.72335843183834,0,,,,,,
43.718714574450985,1.068938366222295,161.76950914296762,76.65971817014675,84.0,345.05769884167626,0,,,,,,
44.718714574450985,1.080843128127057,160.78801044910585,76.46824933731057,84.0,344.3920392515142,0,,,,,,
45.718714574450985,1.0927478900318188,159.8065117552441,76.27678050447439,84.0,343.7263796613521,0,,,,,,
46.718714574450985,1.1046526519365807,158.82501306138232,76.08531167163821,84.0,343.06072007119,0,,,,,,
47.718714574450985,1.1165574138413425,157.84351436752056,75.89384283880203,84.0,342.39506048102794,0,,,,,,
48.718714574450985,1.1284621757461044,156.8620156736588,75.70237400596585,84.0,341.72940089086586,0,,,,,,
49.718714574450985,1.1403669376508663,155.88051697979702,75.51090517312967,84.0,341.0637413007038,0,,,,,,
50.718714574450985,1.1522716995556281,154.89901828593526,75.31943634029349,84.0,340.3980817105417,0,,,,,,
51.718714574450985,1.16417646146039,153.9175195920735,75.12796750745731,84.0,339.7324221203796,0,,,,,,
52.718714574450985,1.1760812233651519,152.93602089821172,74.93649867462113,84.0,339.06676253021755,0,,,,,,
53.718714574450985,1.1879859852699137,151.95452220434996,74.74502984178496,84.0,338.40110294005547,0,,,,,,
54.718714574450985,1.1998907471746756,150.9730235104882,74.55356100894878,84.0,337.7354433498934,0,,,,,,
55.718714574450985,1.2117955090794374,149.99152481662642,74.3620921761126,84.0,337.0697837597313,0,,,,,,
56.718714574450985,1.2237002709841993,149.01002612276466,74.17062334327642,84.0,336.4041241695692,0,,,,,,
57.718714574450985,1.2356050328889612,148.0285274289029,73.97915451044024,84.0,335.7384645794071,0,,,,,,
58.718714574450985,1.247509794793723,147.04702873504112,73.78768567760406,84.0,335.072804989245,0,,,,,,
59.718714574450985,1.259414556698485,146.06553004117936,73.59621684476788,84.0,334.40714539908294,0,,,,,,
60.718714574450985,1.2713193186032468,145.0840313473176,73.4047480119317,84.0,333.74148580892086,0,,,,,,
61.718714574450985,1.2832240805080086,144.10253265345582,73.21327917909552,84.0,333.0758262187588,0,,,,,,
62.718714574450985,1.2951288424127705,143.12103395959406,73.02181034625934,84.0,332.4101666285967,0,,,,,,
63.718714574450985,1.3070336043175323,142.1395352657323,72.83034151342316,84.0,331.7445070384346,0,,,,,,
64.71871457445098,1.3189383662222942,141.15803657187053,72.63887268058699,84.0,331.07884744827254,0,,,,,,
65.71871457445098,1.330843128127056,140.17653787800876,72.4474038477508,84.0,330.41318785811046,0,,,,,,
66.71871457445098,1.342747890031818,139.195039184147,72.25593501491463,84.0,329.7475282679484,0,,,,,,
67.71871457445098,1.3546526519365798,138.21354049028523,72.06446618207845,84.0,329.0818686777863,0,,,,,,
68.71871457445098,1.3665574138413417,137.23204179642346,71.87299734924227,84.0,328.4162090876242,0,,,,,,
69.71871457445098,1.3784621757461035,136.2505431025617,71.68152851640609,84.0,327.75054949746215,0,,,,,,
70.71871457445098,1.3903669376508654,135.26904440869993,71.49005968356991,84.0,327.08488990730007,0,,,,,,
71.71871457445098,1.4022716995556272,134.28754571483816,71.29859085073373,84.0,326.419230317138,0,,,,,,
72.71871457445098,1.4141764614603891,133.3060470209764,71.10712201789755,84.0,325.7535707269759,0,,,,,,
73.71871457445098,1.426081223365151,132.32454832711463,70.91565318506137,84.0,325.08791113681383,0,,,,,,
74.71871457445098,1.4379859852699128,131.34304963325286,70.7241843522252,84.0,324.42225154665175,0,,,,,,
75.71871457445098,1.4498907471746747,130.3615509393911,70.53271551938901,84.0,323.7565919564897,0,,,,,,
76.71871457445098,1.4617955090794366,129.38005224552933,70.34124668655284,84.0,323.0909323663276,0,,,,,,
77.71871457445098,1.4737002709841984,128.39855355166756,70.14977785371666,84.0,322.4252727761655,0,,,,,,
78.71871457445098,1.4856050328889603,127.4170548578058,69.95830902088048,84.0,321.75961318600343,0,,,,,,
79.71871457445098,1.4975097947937221,126.43555616394403,69.7668401880443,84.0,321.09395359584136,0,,,,,,
80.71871457445098,1.509414556698484,125.45405747008226,69.57537135520812,84.0,320.4282940056793,0,,,,,,
81.71871457445098,1.5213193186032459,124.4725587762205,69.38390252237194,84.0,319.7626344155172,0,,,,,,
82.71871457445098,1.5332240805080077,123.49106008235873,69.19243368953576,84.0,319.0969748253551,0,,,,,,
83.71871457445098,1.5451288424127696,122.50956138849696,69.00096485669958,84.0,318.43131523519304,0,,,,,,
84.71871457445098,1.5570336043175315,121.5280626946352,68.8094960238634,84.0,317.76565564503096,0,,,,,,
85.71871457445098,1.5689383662222933,120.54656400077343,68.61802719102722,84.0,317.0999960548689,0,,,,,,
86.71871457445098,1.5808431281270552,119.56506530691166,68.42655835819104,84.0,316.4343364647068,0,,,,,,
87.71871457445098,1.592747890031817,118.5835666130499,68.23508952535487,84.0,315.7686768745447,0,,,,,,
88.71871457445098,1.604652651936579,117.60206791918813,68.04362069251869,84.0,315.10301728438264,0,,,,,,
89.71871457445098,1.6165574138413408,116.62056922532636,67.85215185968251,84.0,314.43735769422057,0,,,,,,
90.71871457445098,1.6284621757461026,115.6390705314646,67.66068302684633,84.0,313.7716981040585,0,,,,,,
91.71871457445098,1.6403669376508645,114.65757183760283,67.46921419401015,84.0,313.1060385138964,0,,,,,,
92.71871457445098,1.6522716995556264,113.67607314374106,67.27774536117397,84.0,312.44037892373433,0,,,,,,
93.71871457445098,1.6641764614603882,112.6945744498793,67.08627652833779,84.0,311.77471933357225,0,,,,,,
94.71871457445098,1.67608122336515,111.71307575601753,66.89480769550161,84.0,311.10905974341017,0,,,,,,
95.71871457445098,1.687985985269912,110.73157706215576,66.70333886266543,84.0,310.4434001532481,0,,,,,,
96.71871457445098,1.6998907471746738,109.750078368294,66.51187002982925,84.0,309.777740563086,0,,,,,,
97.71871457445098,1.7117955090794357,108.76857967443223,66.32040119699307,84.0,309.11208097292393,0,,,,,,
98.71871457445098,1.7237002709841975,107.78708098057047,66.1289323641569,84.0,308.44642138276186,0,,,,,,
99.71871457445098,1.7356050328889594,106.8055822867087,65.93746353132072,84.0,307.7807617925998,0,,,,,,
100.71871457445098,1.7475097947937213,105.82408359284693,65.74599469848454,84.0,307.1151022024377,0,,,,,,
101.71871457445098,1.7594145566984831,104.84258489898517,65.55452586564836,84.0,306.4494426122756,0,,,,,,
102.71871457445098,1.771319318603245,103.8610862051234,65.36305703281218,84.0,305.78378302211354,0,,,,,,
103.71871457445098,1.7832240805080068,102.87958751126163,65.171588199976,84.0,305.11812343195146,0,,,,,,
104.61488236026926,1.7939988571506211,102.0,65.0,82.34549662476259,305.1140518566002,0,,,,,,
105.61488236026926,1.806280490098702,101.05131670194949,64.68377223398316,80.49929840003315,305.1095085384676,0,,,,,,
106.61488236026926,1.8188470616232477,100.10263340389898,64.36754446796633,78.65310017530372,305.1049652203349,0,,,,,,
107.61488236026926,1.8317121071182334,99.15395010584847,64.05131670194949,76.80690195057429,305.10042190220224,0,,,,,,
108.61488236026926,1.8448901498967705,98.20526680779795,63.73508893593265,74.96070372584485,305.09587858406957,0,,,,,,
109.61488236026926,1.8583967997299273,97.25658350974744,63.418861169915814,73.11450550111542,305.0913352659369,0,,,,,,
110.61488236026926,1.8722488639855397,96.30790021169693,63.10263340389898,71.26830727638598,305.0867919478043,0,,,,,,
111.61488236026926,1.8864644733511178,95.35921691364642,62.78640563788214,69.42210905165655,305.0822486296716,0,,,,,,
112.61488236026926,1.9010632244992915,94.41053361559591,62.4701778718653,67.57591082692711,305.0777053115389,0,,,,,,
113.61488236026926,1.9160663425115136,93.4618503175454,62.153950105848466,65.72971260219768,305.0731619934063,0,,,,,,
114.61488236026926,1.9314968664372374,92.51316701949489,61.83772233983163,63.88351437746825,305.0686186752736,0,,,,,,
115.61488236026926,1.9473798620590002,91.56448372144438,61.52149457381479,62.037316152738825,305.06407535714095,0,,,,,,
116.61488236026926,1.9637426667945883,90.61580042339386,61.205266807797955,60.1911179280094,305.0595320390083,0,,,,,,
117.61488236026926,1.980615172742704,89.66711712534335,60.88903904178112,58.34491970327997,305.0549887208756,0,,,,,,
118.61488236026926,1.9980301552303579,88.71843382729284,60.57281127576428,56.49872147855054,305.050445402743,0,,,,,,
119.61488236026926,2.0160236559312774,87.76975052924233,60.25658350974744,54.652523253821116,305.0459020846103,0,,,,,,
120.61488236026926,2.0346354318060245,86.82106723119182,59.940355743730606,52.80632502909169,305.04135876647763,0,,,,,,
121.61488236026926,2.053909483916913,85.87238393314131,59.62412797771377,50.96012680436226,305.036815448345,0,,,,,,
122.61488236026926,2.0738946838003973,84.9237006350908,59.30790021169693,49.113928579632834,305.03227213021233,0,,,,,,
123.61488236026926,2.094645519821579,83.97501733704028,58.991672445680095,47.26773035490341,305.02772881207966,0,,,,,,
124.61488235748914,2.116222992127511,83.02633269167171,58.675448730437765,45.42153213530664,305.02318549395966,0,,,,,,
125.61477819407763,2.138693304182806,82.06994975005678,58.383689663714925,43.575526216882615,305.0186426490745,0,,,,,,
126.61467403066612,2.1621361338261536,81.10018016229957,58.140094444779464,41.72952029845859,305.01409980418936,0,,,,,,
127.61456986725462,2.1866394705915977,80.11944784732323,57.94527193481677,39.88351438003456,305.0095569593042,0,,,,,,
128.6144657038431,2.2123038112309787,79.1302041251597,57.79970908864016,38.037508461610535,305.00501411441905,0,,,,,,
129.6143615404316,2.239244648056189,78.1349215899262,57.70376973755741,36.19150254318654,305.00047126953393,0,,,,,,
130.61425737702007,2.2673647521162765,77.13608792962769,57.65769367998196,34.92458112790354,305.00043844863507,0,,,,,,
131.61415321360857,2.2965237829188303,76.13619970823241,57.66159608206183,33.6576597126205,305.0004056277362,0,,,,,,
132.61404905019705,2.326801454042291,75.13775612556213,57.71546718982413,32.3907382973375,305.00037280683733,0,,,,,,
133.61394488678556,2.358287019319868,74.14325277059416,57.819172353555,31.12381688205446,305.0003399859385,0,,,,,,
134.61394488678556,2.391084345746139,73.16267209490324,58.01528848869318,29.85676348616716,305.0003071616206,0,,,,,,
135.61394488678556,2.4253036900045064,72.18209141921233,58.21140462383136,28.589710090279862,305.00027433730264,0,,,,,,
136.61394488678556,2.461073951844831,71.20151074352141,58.40752075896955,27.322656694392563,305.0002415129847,0,,,,,,
137.61394488678556,2.498542389374756,70.2209300678305,58.60363689410773,26.055603298505265,305.00020868866676,0,,,,,,
138.61394488678556,2.537878279031304,69.24034939213958,58.79975302924591,24.788549902617966,305.0001758643488,0,,,,,,
139.61394488678556,2.5792775354727753,68.25976871644866,58.9958691643841,23.521496506730667,305.0001430400309,0,,,,,,
140.61394488678556,2.6229686102318865,67.27918804075775,59.19198529952228,22.25444311084337,305.00011021571294,0,,,,,,
141.61394488678556,2.6692201187666207,66.29860736506683,59.38810143466046,20.98738971495607,305.000077391395,0,,,,,,
142.61394488678556,2.718350841478283,65.31802668937591,59.584217569798646,19.72033631906877,305.00004456707705,0,,,,,,
143.61394488678556,2.770743044253398,64.337446013685,59.78033370493683,18.453282923181472,305.0000117427591,0,,,,,,
144.61394488678556,2.8256077872784533,63.35686533799407,59.97644984007501,18.0,304.9999789184412,0,,,,,,
144.971586438474,2.845476762372255,63.0,60.0,18.0,304.99996717910113,0,,,,,,
