Distance (in),Time (s),X (in),Y (in),Velocity (in/s),Orientation (deg),Touch,Way X (in),Way Y (in),Way Velocity (in/s),Way Orientation (deg),Way Turn Radius (in),Touch this Point
0.0,0.0,64.0,60.0,0.0,305.0,0,64.0,60.0,0.0,305.0,3.0,0
0.9999999999999998,0.16666666666666663,64.9680727925298,60.2506692409602,12.0,305.0,0,75.47,62.97,60.0,305.0,3.0,0.0
1.9999999999999996,0.24999999999999994,65.93614558505959,60.5013384819204,12.0,305.0,0,117.52,76.53,60.0,305.0,3.0,0.0
2.999999999999999,0.33306825666470363,66.90421837758939,60.7520077228806,12.076585693531396,305.0,0,154.62,94.67,42.0,305.0,3.0,0.0
3.999999999999999,0.40404385182832425,67.87229117011918,61.0026769638408,16.102114258041862,305.0,0,,,,,,
4.999999999999999,0.4592470925111403,68.84036396264898,61.253346204801,20.12764282255233,305.0,0,,,,,,
5.999999999999999,0.5044133803425352,69.80843675517878,61.5040154457612,24.153171387062795,305.0,0,,,,,,
6.999999999999999,0.5426310085075617,70.77650954770857,61.7546846867214,28.17869995157326,305.0,0,,,,,,
7.999999999999999,0.5757529529172514,71.74458234023837,62.0053539276816,32.20422851608373,305.0,0,,,,,,
8.999999999999998,0.6049781979846245,72.71265513276816,62.256023168641796,36.2297570805942,305.0,0,,,,,,
9.999999999999998,0.6311271014659584,73.68072792529796,62.506692409601996,40.255285645104664,305.0,0,,,,,,
10.999999999999998,0.6547856331871653,74.64880071782775,62.757361650562196,44.28081420961513,305.0,0,,,,,,
11.84828257596855,0.6737049806684199,75.47,62.97,45.392741055336366,305.0,0,,,,,,
12.848282575968556,0.6954213844602888,76.42173847837846,63.27691019659481,46.70353875084681,305.0,0,,,,,,
13.848282575968561,0.716536722994182,77.37347695675692,63.583820393189626,48.014336446357255,305.0,0,,,,,,
14.848282575968566,0.7370833726514481,78.32521543513538,63.89073058978444,49.3251341418677,305.0,0,,,,,,
15.848282575968572,0.7570911624884958,79.27695391351384,64.19764078637925,50.635931837378145,305.0,0,,,,,,
16.84828257596858,0.7765876346338335,80.2286923918923,64.50455098297407,51.94672953288859,305.0,0,,,,,,
17.848282575968586,0.7955982722408088,81.18043087027075,64.81146117956888,53.257527228399034,305.0,0,,,,,,
18.848282575968593,0.8141466997290046,82.13216934864921,65.1183713761637,54.56832492390948,305.0,0,,,,,,
19.8482825759686,0.8322548592608525,83.08390782702767,65.42528157275851,55.879122619419924,305.0,0,,,,,,
20.848282575968607,0.8499431667594951,84.03564630540613,65.73219176935332,57.18992031493037,305.0,0,,,,,,
21.848282575968614,0.8672306502495176,84.98738478378459,66.03910196594813,58.50071801044081,305.0,0,,,,,,
22.84828257596862,0.884135072870717,85.93912326216305,66.34601216254295,59.81151570595126,305.0,0,,,,,,
23.84828257596863,0.9008279590946802,86.89086174054151,66.65292235913776,60.0,305.0,0,,,,,,
24.848282575968636,0.917494625761347,87.84260021891997,66.95983255573258,60.0,305.0,0,,,,,,
25.848282575968643,0.9341612924280138,88.79433869729843,67.26674275232739,60.0,305.0,0,,,,,,
26.84828257596865,0.9508279590946807,89.74607717567689,67.5736529489222,60.0,305.0,0,,,,,,
27.848282575968657,0.9674946257613475,90.69781565405535,67.88056314551702,60.0,305.0,0,,,,,,
28.848282575968664,0.9841612924280143,91.6495541324338,68.18747334211183,60.0,305.0,0,,,,,,
29.84828257596867,1.0008279590946811,92.60129261081227,68.49438353870664,60.0,305.0,0,,,,,,
30.84828257596868,1.017494625761348,93.55303108919072,68.80129373530146,60.0,305.0,0,,,,,,
31.848282575968685,1.0341612924280148,94.50476956756918,69.10820393189627,60.0,305.0,0,,,,,,
32.84828257596869,1.0508279590946816,95.45650804594764,69.41511412849108,60.0,305.0,0,,,,,,
33.848282575968696,1.0674946257613485,96.4082465243261,69.7220243250859,60.0,305.0,0,,,,,,
34.8482825759687,1.0841612924280153,97.35998500270456,70.02893452168071,60.0,305.0,0,,,,,,
35.84828257596871,1.1008279590946821,98.31172348108302,70.33584471827552,60.0,305.0,0,,,,,,
36.84828257596872,1.117494625761349,99.26346195946148,70.64275491487034,60.0,305.0,0,,,,,,
37.848282575968724,1.1341612924280158,100.21520043783994,70.94966511146515,60.0,305.0,0,,,,,,
38.84828257596873,1.1508279590946826,101.1669389162184,71.25657530805996,60.0,305.0,0,,,,,,
39.84828257596874,1.1674946257613494,102.11867739459686,71.56348550465478,60.0,305.0,0,,,,,,
40.848282575968746,1.1841612924280163,103.07041587297532,71.87039570124959,60.0,305.0,0,,,,,,
41.84828257596875,1.200827959094683,104.02215435135378,72.1773058978444,60.0,305.0,0,,,,,,
42.84828257596876,1.21749462576135,104.97389282973224,72.48421609443922,60.0,305.0,0,,,,,,
43.84828257596877,1.2341612924280168,105.9256313081107,72.79112629103403,60.0,305.0,0,,,,,,
44.848282575968774,1.2508279590946836,106.87736978648915,73.09803648762885,60.0,305.0,0,,,,,,
45.84828257596878,1.2674946257613504,107.82910826486761,73.40494668422366,60.0,305.0,0,,,,,,
46.84828257596879,1.2841612924280172,108.78084674324607,73.71185688081847,60.0,305.0,0,,,,,,
47.848282575968796,1.300827959094684,109.73258522162453,74.01876707741329,60.0,305.0,0,,,,,,
48.8482825759688,1.317494625761351,110.68432370000299,74.3256772740081,60.0,305.0,0,,,,,,
49.84828257596881,1.3341612924280177,111.63606217838145,74.63258747060291,60.0,305.0,0,,,,,,
50.84828257596882,1.3508279590946846,112.58780065675991,74.93949766719773,60.0,305.0,0,,,,,,
51.848282575968824,1.3674946257613514,113.53953913513837,75.24640786379254,60.0,305.0,0,,,,,,
52.84828257596883,1.3841612924280182,114.49127761351683,75.55331806038735,60.0,305.0,0,,,,,,
53.84828257596884,1.400827959094685,115.44301609189529,75.86022825698217,60.0,305.0,0,,,,,,
54.848282575968845,1.4174946257613519,116.39475457027375,76.16713845357698,60.0,305.0,0,,,,,,
55.84828257596885,1.4341612924280187,117.3464930486522,76.4740486501718,60.0,305.0,0,,,,,,
56.030587857608204,1.4372017270687276,117.52,76.53,59.92053977969628,305.0,0,,,,,,
57.030587857608204,1.4539514141109209,118.41836312742345,76.96925356149491,59.48467626773881,305.0,0,,,,,,
58.030587857608204,1.470824282837523,119.3167262548469,77.40850712298982,59.04881275578135,305.0,0,,,,,,
59.030587857608204,1.4878221584940743,120.21508938227035,77.84776068448473,58.612949243823884,305.0,0,,,,,,
60.030587857608204,1.5049469071973032,121.1134525096938,78.28701424597963,58.17708573186642,305.0,0,,,,,,
61.030587857608204,1.522200437164563,122.01181563711725,78.72626780747454,57.741222219908956,305.0,0,,,,,,
62.030587857608204,1.539584699989845,122.9101787645407,79.16552136896945,57.30535870795149,305.0,0,,,,,,
63.030587857608204,1.5571016919685043,123.80854189196415,79.60477493046436,56.86949519599403,305.0,0,,,,,,
64.03058785760821,1.5747534554729457,124.7069050193876,80.04402849195927,56.433631684036555,305.0,0,,,,,,
65.03058785760821,1.592542080381641,125.60526814681106,80.48328205345418,55.99776817207909,305.0,0,,,,,,
66.03058785760821,1.6104697055639794,126.50363127423451,80.92253561494908,55.56190466012163,305.0,0,,,,,,
67.03058785760821,1.6285385204235852,127.40199440165796,81.36178917644399,55.12604114816416,305.0,0,,,,,,
68.0305878576082,1.6467507665028922,128.3003575290814,81.8010427379389,54.690177636206705,305.0,0,,,,,,
69.03058785760818,1.6651087391519135,129.19872065650483,82.24029629943381,54.25431412424925,305.0,0,,,,,,
70.03058785760817,1.6836147892643127,130.09708378392827,82.67954986092872,53.81845061229179,305.0,0,,,,,,
71.03058785760815,1.7022713250840626,130.9954469113517,83.11880342242362,53.382587100334334,305.0,0,,,,,,
72.03058785760814,1.7210808140861606,131.89381003877514,83.55805698391853,52.94672358837688,305.0,0,,,,,,
73.03058785760813,1.7400457849350766,132.79217316619858,83.99731054541344,52.51086007641942,305.0,0,,,,,,
74.03058785760811,1.759168829524819,133.69053629362202,84.43656410690835,52.07499656446196,305.0,0,,,,,,
75.0305878576081,1.7784526051047356,134.58889942104545,84.87581766840326,51.639133052504505,305.0,0,,,,,,
76.03058785760808,1.79789983649541,135.4872625484689,85.31507122989817,51.20326954054705,305.0,0,,,,,,
77.03058785760807,1.817513318399273,136.38562567589233,85.75432479139307,50.76740602858959,305.0,0,,,,,,
78.03058785760805,1.8372959178108323,137.28398880331576,86.19357835288798,50.33154251663213,305.0,0,,,,,,
79.03058785760804,1.8572505765317149,138.1823519307392,86.63283191438289,49.895679004674676,305.0,0,,,,,,
80.03058785760803,1.8773803137960436,139.08071505816264,87.0720854758778,49.45981549271722,305.0,0,,,,,,
81.03058785760801,1.8976882290120065,139.97907818558608,87.51133903737271,49.02395198075976,305.0,0,,,,,,
82.030587857608,1.9181775046258425,140.8774413130095,87.95059259886762,48.588088468802304,305.0,0,,,,,,
83.03058785760798,1.9388514091148654,141.77580444043295,88.38984616036252,48.15222495684485,305.0,0,,,,,,
84.03058785760797,1.9597133001165652,142.6741675678564,88.82909972185743,47.71636144488739,305.0,0,,,,,,
85.03058785760796,1.9807666277012768,143.57253069527982,89.26835328335234,47.28049793292993,305.0,0,,,,,,
86.03058785760794,2.0020149377963974,144.47089382270326,89.70760684484725,46.844634420972476,305.0,0,,,,,,
87.03058785760793,2.0234618757706486,145.3692569501267,90.14686040634216,46.40877090901502,305.0,0,,,,,,
88.03058785760791,2.04511119018745,146.26762007755013,90.58611396783706,45.97290739705756,305.0,0,,,,,,
89.0305878576079,2.0669667367370628,147.16598320497357,91.02536752933197,45.537043885100104,305.0,0,,,,,,
90.03058785760788,2.089032482357825,148.064346332397,91.46462109082688,45.10118037314265,305.0,0,,,,,,
91.03058785760787,2.111312509557495,148.96270945982045,91.90387465232179,44.66531686118519,305.0,0,,,,,,
92.03058785760786,2.133811020946478,149.86107258724388,92.3431282138167,44.22945334922773,305.0,0,,,,,,
93.03058785760784,2.1565323439955173,150.75943571466732,92.7823817753116,43.793589837270275,305.0,0,,,,,,
94.03058785760783,2.179480936031338,151.65779884209076,93.22163533680651,43.35772632531282,305.0,0,,,,,,
95.03058785760781,2.202661389484652,152.5561619695142,93.66088889830142,42.92186281335536,305.0,0,,,,,,
96.0305878576078,2.226078437405987,153.45452509693763,94.10014245979633,42.485999301397904,305.0,0,,,,,,
97.03058785760778,2.2497369592659098,154.35288822436107,94.53939602129124,42.050135789440446,305.0,0,,,,,,
97.32791949053563,2.2568120610521274,154.62,94.67,42.0,305.0,0,,,,,,
