Distance (in),Time (s),X (in),Y (in),Velocity (in/s),Orientation (deg),Touch,Way X (in),Way Y (in),Way Velocity (in/s),Way Orientation (deg),Way Turn Radius (in),Touch this Point
0.0,0.0,302.0,35.0,0.0,0.0,0,302.0,35.0,0.0,0.0,3.0,0.0
1.0000000000000149,0.16666666666666916,301.0624612299419,35.347880805216356,12.0,1.3045530195613568,0,280.44,43.0,84.0,30.0,3.0,0.0
2.0000000000000298,0.2500000000000037,300.1249224598838,35.69576161043271,12.0,2.6091060391227137,0,261.38,51.07,84.0,70.0,3.0,0.0
3.0000000000000444,0.33333333333333826,299.1873836898257,36.04364241564907,12.0,3.91365905868407,0,221.0,72.0,84.0,70.0,3.0,0
4.0000000000000595,0.4097989660813755,298.2498449197676,36.39152322086542,14.155541098969948,5.218212078245427,0,205.0,80.0,24.0,70.0,15.0,0
5.000000000000075,0.47259337871980045,297.3123061497095,36.73940402608178,17.694426373712435,6.522765097806785,0,168.64,90.0,24.0,70.0,20.0,0.0
6.00000000000009,0.5239706254239663,296.3747673796514,37.087284831298135,21.233311648454922,7.827318117368142,0,150.0,87.0,84.0,70.0,15.0,0.0
7.000000000000105,0.5674436803274913,295.4372286095933,37.43516563651449,24.77219692319741,9.1318711369295,0,102.0,80.0,84.0,135.0,15.0,0.0
8.000000000000119,0.6051203279105462,294.4996898395352,37.783046441730846,28.311082197939893,10.436424156490855,0,75.0,70.0,48.0,135.0,20.0,0.0
9.000000000000133,0.638364428719124,293.5621510694771,38.1309272469472,31.849967472682376,11.74097717605221,0,60.0,60.0,24.0,135.0,3.0,0.0
10.000000000000147,0.66810915049522,292.624612299419,38.47880805216356,35.38885274742486,13.045530195613566,0,,,,,,
11.000000000000162,0.6950210416259736,291.68707352936093,38.826688857379914,38.92773802216735,14.350083215174921,0,,,,,,
12.000000000000176,0.7195927683105746,290.74953475930283,39.17456966259627,42.46662329690983,15.654636234736277,0,,,,,,
13.00000000000019,0.7421987568604076,289.81199598924474,39.522450467812625,46.005508571652314,16.959189254297634,0,,,,,,
14.000000000000204,0.7631302277398826,288.87445721918664,39.87033127302898,49.5443938463948,18.26374227385899,0,,,,,,
15.000000000000218,0.7826181489035318,287.93691844912854,40.21821207824534,53.08327912113728,19.56829529342035,0,,,,,,
16.000000000000234,0.8008487848308165,286.99937967907044,40.56609288346169,56.62216439587977,20.872848312981706,0,,,,,,
17.00000000000025,0.8179745337322051,286.06184090901235,40.91397368867805,60.161049670622255,22.177401332543063,0,,,,,,
18.000000000000263,0.8341216684106572,285.12430213895425,41.261854493894404,63.69993494536474,23.48195435210442,0,,,,,,
19.000000000000277,0.8493959849983821,284.18676336889615,41.60973529911076,67.23882022010723,24.786507371665778,0,,,,,,
20.00000000000029,0.863887003299557,283.24922459883805,41.957616104327116,70.77770549484971,26.091060391227135,0,,,,,,
21.000000000000306,0.8776711426592113,282.31168582877996,42.30549690954347,74.3165907695922,27.395613410788492,0,,,,,,
22.00000000000032,0.8908141592579514,281.37414705872186,42.65337771475983,77.85547604433468,28.70016643034985,0,,,,,,
22.996382324183074,0.9034874436736025,280.44,43.0,79.3858974629551,30.688298709668516,0,,,,,,
23.996382324183063,0.9159634450700466,279.5191394738478,43.38989215351774,80.92187555236538,32.68364952136556,0,,,,,,
24.996382324183053,0.9282048657766718,278.59827894769563,43.779784307035484,82.45785364177566,34.6790003330626,0,,,,,,
25.996382324183042,0.9402203644213305,277.67741842154345,44.16967646055323,83.99383173118594,36.67435114475965,0,,,,,,
26.99638232418303,0.9521255634360197,276.75655789539127,44.55956861407097,84.0,38.66970195645669,0,,,,,,
27.99638232418302,0.9640303253407815,275.8356973692391,44.94946076758871,84.0,40.665052768153735,0,,,,,,
28.99638232418301,0.9759350872455432,274.9148368430869,45.33935292110645,84.0,42.66040357985078,0,,,,,,
29.996382324183,0.987839849150305,273.9939763169347,45.729245074624195,84.0,44.65575439154782,0,,,,,,
30.99638232418299,0.9997446110550667,273.07311579078254,46.11913722814194,84.0,46.65110520324487,0,,,,,,
31.996382324182978,1.0116493729598286,272.15225526463036,46.50902938165968,84.0,48.64645601494191,0,,,,,,
32.99638232418297,1.0235541348645905,271.2313947384782,46.89892153517742,84.0,50.641806826638955,0,,,,,,
33.99638232418295,1.035458896769352,270.310534212326,47.288813688695164,84.0,52.63715763833599,0,,,,,,
34.99638232418294,1.0473636586741137,269.3896736861738,47.678705842212906,84.0,54.63250845003303,0,,,,,,
35.996382324182925,1.0592684205788754,268.4688131600216,48.06859799573065,84.0,56.627859261730066,0,,,,,,
36.99638232418291,1.071173182483637,267.54795263386944,48.45849014924839,84.0,58.6232100734271,0,,,,,,
37.996382324182896,1.0830779443883987,266.62709210771726,48.84838230276613,84.0,60.61856088512414,0,,,,,,
38.99638232418288,1.0949827062931603,265.7062315815651,49.238274456283875,84.0,62.61391169682118,0,,,,,,
39.99638232418287,1.106887468197922,264.7853710554129,49.62816660980162,84.0,64.60926250851821,0,,,,,,
40.99638232418285,1.1187922301026836,263.8645105292607,50.01805876331936,84.0,66.60461332021525,0,,,,,,
41.99638232418284,1.1306969920074452,262.94365000310853,50.4079509168371,84.0,68.59996413191229,0,,,,,,
42.996382324182825,1.1426017539122069,262.02278947695635,50.797843070354844,84.0,70.59531494360932,0,,,,,,
43.69441363153207,1.1509116504282693,261.38,51.07,84.0,70.58617838910189,0,,,,,,
44.69441363153209,1.1628164123330313,260.4921755966146,51.530182386400604,84.0,70.57308935654527,0,,,,,,
45.694413631532115,1.1747211742377934,259.60435119322915,51.99036477280121,84.0,70.56000032398865,0,,,,,,
46.694413631532136,1.1866259361425555,258.7165267898437,52.45054715920181,84.0,70.54691129143202,0,,,,,,
47.69441363153216,1.1985306980473176,257.8287023864583,52.910729545602415,84.0,70.5338222588754,0,,,,,,
48.69441363153218,1.2104354599520797,256.9408779830729,53.37091193200302,84.0,70.52073322631878,0,,,,,,
49.6944136315322,1.2223402218568418,256.05305357968746,53.83109431840362,84.0,70.50764419376216,0,,,,,,
50.69441363153219,1.2342449837616036,255.16522917630206,54.291276704804226,84.0,70.49455516120554,0,,,,,,
51.694413631532186,1.2461497456663655,254.27740477291667,54.75145909120483,84.0,70.48146612864892,0,,,,,,
52.69441363153218,1.2580545075711274,253.38958036953127,55.21164147760543,84.0,70.4683770960923,0,,,,,,
53.69441363153217,1.2699592694758892,252.50175596614588,55.671823864006036,84.0,70.45528806353568,0,,,,,,
54.694413631532164,1.281864031380651,251.61393156276048,56.13200625040664,84.0,70.44219903097905,0,,,,,,
55.69441363153216,1.293768793285413,250.7261071593751,56.59218863680724,84.0,70.42910999842243,0,,,,,,
56.69441363153215,1.3056735551901748,249.8382827559897,57.05237102320785,84.0,70.41602096586581,0,,,,,,
57.69441363153214,1.3175783170949367,248.9504583526043,57.51255340960845,84.0,70.40293193330919,0,,,,,,
58.694413631532136,1.3294830789996985,248.0626339492189,57.972735796009054,84.0,70.38984290075257,0,,,,,,
59.69441363153213,1.3413878409044604,247.1748095458335,58.43291818240966,84.0,70.37675386819595,0,,,,,,
60.69441363153212,1.3532926028092223,246.28698514244812,58.89310056881026,84.0,70.36366483563933,0,,,,,,
61.694413631532115,1.3651973647139841,245.39916073906272,59.353282955210865,84.0,70.3505758030827,0,,,,,,
62.69441363153211,1.377102126618746,244.51133633567733,59.81346534161147,84.0,70.33748677052608,0,,,,,,
63.6944136315321,1.3890068885235078,243.62351193229193,60.27364772801207,84.0,70.32439773796946,0,,,,,,
64.6944136315321,1.4009116504282697,242.73568752890654,60.733830114412676,84.0,70.31130870541284,0,,,,,,
65.6944136315321,1.4128164123330316,241.84786312552114,61.19401250081328,84.0,70.29821967285622,0,,,,,,
66.6944136315321,1.4247211742377934,240.96003872213575,61.65419488721388,84.0,70.2851306402996,0,,,,,,
67.6944136315321,1.4366259361425553,240.07221431875035,62.11437727361449,84.0,70.27204160774298,0,,,,,,
68.6944136315321,1.4485306980473172,239.18438991536496,62.57455966001509,84.0,70.25895257518636,0,,,,,,
69.6944136315321,1.460435459952079,238.29656551197957,63.034742046415694,84.0,70.24586354262973,0,,,,,,
70.6944136315321,1.4723402218568409,237.40874110859417,63.4949244328163,84.0,70.23277451007311,0,,,,,,
71.6944136315321,1.4842449837616027,236.52091670520878,63.9551068192169,84.0,70.21968547751649,0,,,,,,
72.6944136315321,1.4961497456663646,235.63309230182338,64.41528920561751,84.0,70.20659644495987,0,,,,,,
73.6944136315321,1.5080545075711265,234.745267898438,64.87547159201812,84.0,70.19350741240325,0,,,,,,
74.6944136315321,1.5199592694758883,233.8574434950526,65.33565397841872,84.0,70.18041837984663,0,,,,,,
75.6944136315321,1.5318640313806502,232.9696190916672,65.79583636481932,84.0,70.16732934729,0,,,,,,
76.6944136315321,1.543768793285412,232.0817946882818,66.25601875121993,84.0,70.15424031473339,0,,,,,,
77.6944136315321,1.555673555190174,231.1939702848964,66.71620113762053,84.0,70.14115128217676,0,,,,,,
78.6944136315321,1.5675783170949358,230.30614588151101,67.17638352402113,84.0,70.12806224962014,0,,,,,,
79.6944136315321,1.5794830789996976,229.41832147812562,67.63656591042174,84.0,70.11497321706352,0,,,,,,
80.6944136315321,1.5913878409044595,228.53049707474023,68.09674829682234,84.0,70.1018841845069,0,,,,,,
81.6944136315321,1.6032926028092214,227.64267267135483,68.55693068322294,84.0,70.08879515195028,0,,,,,,
82.6944136315321,1.6151973647139832,226.75484826796944,69.01711306962355,84.0,70.07570611939366,0,,,,,,
83.6944136315321,1.627102126618745,225.86702386458404,69.47729545602415,84.0,70.06261708683704,0,,,,,,
84.6944136315321,1.639006888523507,224.97919946119865,69.93747784242476,84.0,70.04952805428042,0,,,,,,
85.6944136315321,1.6509116504282688,224.09137505781325,70.39766022882536,84.0,70.0364390217238,0,,,,,,
86.6944136315321,1.6628164123330307,223.20355065442786,70.85784261522596,84.0,70.02334998916717,0,,,,,,
87.6944136315321,1.6747211742377925,222.31572625104246,71.31802500162657,84.0,70.01026095661055,0,,,,,,
88.6944136315321,1.6866259361425544,221.42790184765707,71.77820738802717,84.0,69.99717192405393,0,,,,,,
89.17638038759942,1.6924193825626668,221.0,72.0,82.38343435580761,69.9972481202275,0,,,,,,
90.17638038759942,1.7048099761961621,220.10557280900008,72.44721359549996,79.02933238955792,69.99740621447901,0,,,,,,
91.17638038759942,1.717737843116411,219.21114561800016,72.89442719099992,75.67523042330824,69.99756430873053,0,,,,,,
92.17638038759942,1.7312516890997214,218.31671842700024,73.34164078649988,72.32112845705855,69.99772240298205,0,,,,,,
93.17638038759942,1.7454071574101255,217.42229123600032,73.78885438199984,68.96702649080886,69.99788049723357,0,,,,,,
94.17638038759942,1.7602682120093476,216.5278640450004,74.2360679774998,65.61292452455918,69.99803859148508,0,,,,,,
95.17638038759942,1.7759088835855628,215.63343685400048,74.68328157299976,62.25882255830949,69.9981966857366,0,,,,,,
96.17638038759942,1.792415498925442,214.73900966300056,75.13049516849972,58.9047205920598,69.99835477998812,0,,,,,,
97.17638038759942,1.8098895636013845,213.84458247200064,75.57770876399968,55.55061862581012,69.99851287423964,0,,,,,,
98.17638038759942,1.8284515420215341,212.95015528100072,76.02492235949964,52.19651665956043,69.99867096849115,0,,,,,,
99.17638038759942,1.8482458923102871,212.0557280900008,76.4721359549996,48.842414693310744,69.99882906274267,0,,,,,,
100.17638038759942,1.8694478914328772,211.16130089900088,76.91934955049956,45.48831272706106,69.99898715699419,0,,,,,,
101.17638038759942,1.8922730729089254,210.26687370800096,77.36656314599952,42.13421076081137,69.99914525124571,0,,,,,,
102.17638038759942,1.9169905766955242,209.37244651700104,77.81377674149948,38.780108794561684,69.99930334549722,0,,,,,,
103.17638038759942,1.943942533191459,208.47801932600112,78.26099033699944,35.426006828312,69.99946143974874,0,,,,,,
104.17638038759942,1.9735730795285722,207.5835921350012,78.7082039324994,32.07190486206231,69.99961953400026,0,,,,,,
105.17638038759942,2.0064733857443215,206.68916494400128,79.15541752799936,28.71780289581263,69.99977762825178,0,,,,,,
106.17638038759942,2.0434546059126406,205.79473775300136,79.60263112349932,25.363700929562945,69.9999357225033,0,,,,,,
107.06492420759766,2.0785087456530382,205.0,80.0,25.331813299488218,69.99993722551396,0,,,,,,
108.06492420759767,2.118012781112743,204.03580138727315,80.26518113661353,25.295925784030857,69.99993891705762,0,,,,,,
109.06492420759768,2.1575729010210294,203.0716027745463,80.53036227322707,25.260038268573496,69.99994060860128,0,,,,,,
110.0649242075977,2.1971892648521045,202.10740416181946,80.7955434098406,25.224150753116135,69.99994230014494,0,,,,,,
111.06492420759771,2.2368620327613344,201.1432055490926,81.06072454645414,25.188263237658774,69.9999439916886,0,,,,,,
112.06492420759773,2.2765913655891272,200.17900693636577,81.32590568306767,25.152375722201413,69.99994568323226,0,,,,,,
113.06492420759774,2.316377424864845,199.21480832363892,81.59108681968121,25.11648820674405,69.99994737477591,0,,,,,,
114.06492420759776,2.3562203728107467,198.25060971091207,81.85626795629474,25.08060069128669,69.99994906631957,0,,,,,,
115.06492420759777,2.3961203723459534,197.28641109818523,82.12144909290828,25.04471317582933,69.99995075786323,0,,,,,,
116.06492420759778,2.4360775870904487,196.32221248545838,82.38663022952181,25.00882566037197,69.99995244940689,0,,,,,,
117.0649242075978,2.4760921813691024,195.35801387273153,82.65181136613535,24.972938144914608,69.99995414095055,0,,,,,,
118.06492420759781,2.5161643202157253,194.3938152600047,82.91699250274888,24.937050629457246,69.99995583249421,0,,,,,,
119.06492420759783,2.5562941693771553,193.42961664727784,83.18217363936242,24.901163113999885,69.99995752403787,0,,,,,,
120.06492420759784,2.5964818953173676,192.465418034551,83.44735477597595,24.865275598542524,69.99995921558153,0,,,,,,
121.06492420759785,2.6367276652216205,191.50121942182415,83.71253591258949,24.829388083085163,69.99996090712519,0,,,,,,
122.06492420759787,2.6770316470006277,190.5370208090973,83.97771704920302,24.793500567627802,69.99996259866884,0,,,,,,
123.06492420759788,2.71739400929476,189.57282219637045,84.24289818581656,24.75761305217044,69.9999642902125,0,,,,,,
124.0649242075979,2.7578149214782823,188.6086235836436,84.50807932243009,24.72172553671308,69.99996598175616,0,,,,,,
125.06492420759791,2.7982945536636152,187.64442497091676,84.77326045904363,24.68583802125572,69.99996767329982,0,,,,,,
126.06492420759793,2.838833076705632,186.6802263581899,85.03844159565716,24.64995050579836,69.99996936484348,0,,,,,,
127.06492420759794,2.879430662205984,185.71602774546307,85.3036227322707,24.614062990340997,69.99997105638714,0,,,,,,
128.06492420759795,2.920087482517462,184.75182913273622,85.56880386888423,24.578175474883636,69.9999727479308,0,,,,,,
129.06492420759795,2.9608037107483836,183.78763052000937,85.83398500549777,24.542287959426275,69.99997443947446,0,,,,,,
130.06492420759795,3.001579520767017,182.82343190728253,86.0991661421113,24.506400443968914,69.99997613101812,0,,,,,,
131.06492420759795,3.042415087206036,181.85923329455568,86.36434727872484,24.470512928511553,69.99997782256177,0,,,,,,
132.06492420759795,3.083310585467006,180.89503468182883,86.62952841533837,24.434625413054192,69.99997951410543,0,,,,,,
133.06492420759795,3.1242661917249057,179.93083606910199,86.8947095519519,24.39873789759683,69.99998120564909,0,,,,,,
134.06492420759795,3.165282082932681,178.96663745637514,87.15989068856544,24.36285038213947,69.99998289719275,0,,,,,,
135.06492420759795,3.2063584368258313,178.0024388436483,87.42507182517897,24.32696286668211,69.99998458873641,0,,,,,,
136.06492420759795,3.2474954319270317,177.03824023092145,87.69025296179251,24.291075351224748,69.99998628028007,0,,,,,,
137.06492420759795,3.288693247550787,176.0740416181946,87.95543409840604,24.255187835767387,69.99998797182373,0,,,,,,
138.06492420759795,3.329952063808123,175.10984300546775,88.22061523501958,24.219300320310026,69.99998966336739,0,,,,,,
139.06492420759795,3.3712720616113097,174.1456443927409,88.48579637163311,24.183412804852665,69.99999135491105,0,,,,,,
140.06492420759795,3.412653422678622,173.18144578001406,88.75097750824665,24.147525289395304,69.9999930464547,0,,,,,,
141.0646537750408,3.4540851136957413,172.21487641810057,89.00632604775613,24.111647479090518,69.99999473754092,0,,,,,,
142.06454961162927,3.495585406493584,171.23728116230362,89.21632414267664,24.0757637017992,69.99999642890837,0,,,,,,
143.06444544821778,3.537147599627869,170.25041211568293,89.37720039589327,24.03987992450788,69.99999812027583,0,,,,,,
144.06434128480626,3.5787718780310414,169.25673593690368,89.48855270055569,24.00399614721656,69.99999981164329,0,,,,,,
145.06423712139477,3.618087101220357,168.2587362989162,89.55010273389341,26.861584942005955,69.99999982184396,0,,,,,,
146.06413295798328,3.653431124875633,167.2589076810673,89.56169665287773,29.719173736795348,69.99999983204462,0,,,,,,
147.06402879457175,3.6855326036071117,166.259749134201,89.52330547874918,32.576762531584656,69.99999984224529,0,,,,,,
148.06402879457175,3.7149394333517325,165.27245435115034,89.36440610379468,35.43464901357967,69.99999985244702,0,,,,,,
149.06402879457175,3.7420664695096324,164.2851595680997,89.20550672884018,38.29253549557469,69.99999986264875,0,,,,,,
150.06402879457175,3.767241765893533,163.29786478504903,89.04660735388568,41.15042197756971,69.99999987285048,0,,,,,,
151.06402879457175,3.7907273203367904,162.31057000199837,88.88770797893118,44.008308459564724,69.99999988305221,0,,,,,,
152.06402879457175,3.8127356936994694,161.3232752189477,88.72880860397667,46.86619494155974,69.99999989325394,0,,,,,,
153.06402879457175,3.8334417116886916,160.33598043589706,88.56990922902217,49.72408142355476,69.99999990345567,0,,,,,,
154.06402879457175,3.8529908978132217,159.3486856528464,88.41100985406767,52.581967905549774,69.9999999136574,0,,,,,,
155.06402879457175,3.8715056752678496,158.36139086979574,88.25211047911317,55.43985438754479,69.99999992385914,0,,,,,,
156.06402879457175,3.8890900104692343,157.37409608674508,88.09321110415867,58.29774086953981,69.99999993406087,0,,,,,,
157.06402879457175,3.9058329456395393,156.38680130369443,87.93431172920417,61.155627351534825,69.9999999442626,0,,,,,,
158.06402879457175,3.9218113248236146,155.39950652064377,87.77541235424967,64.01351383352984,69.99999995446433,0,,,,,,
159.06402879457175,3.937091924677333,154.4122117375931,87.61651297929517,66.87140031552485,69.99999996466606,0,,,,,,
160.06402879457175,3.9517331394637925,153.42491695454245,87.45761360434066,69.72928679751986,69.99999997486779,0,,,,,,
161.06402879457175,3.9657863276819185,152.4376221714918,87.29871422938616,72.58717327951487,69.99999998506952,0,,,,,,
162.06402879457175,3.9792968987171182,151.45032738844114,87.13981485443166,75.44505976150988,69.99999999527125,0,,,,,,
163.06402879457175,3.9923051975039967,150.46303260539048,86.98091547947716,78.30294624350489,70.00000000547298,0,,,,,,
163.5274545303464,3.9982007882259736,150.0,87.0,78.90801280327845,70.61475308716426,0,,,,,,
164.5274545303464,4.010769786980068,149.0104670189367,86.85569310692827,80.21365146998338,71.94129374780252,0,,,,,,
165.5274545303464,4.023135851556225,148.02093403787342,86.71138621385654,81.5192901366883,73.26783440844078,0,,,,,,
166.5274545303464,4.035305430826484,147.03140105681013,86.56707932078481,82.82492880339322,74.59437506907904,0,,,,,,
167.5274545303464,4.047294046762637,146.04186807574683,86.42277242771308,84.0,75.9209157297173,0,,,,,,
168.5274545303464,4.059198808667399,145.05233509468354,86.27846553464136,84.0,77.24745639035555,0,,,,,,
169.5274545303464,4.071103570572161,144.06280211362025,86.13415864156963,84.0,78.57399705099381,0,,,,,,
170.5274545303464,4.083008332476923,143.07326913255696,85.9898517484979,84.0,79.90053771163207,0,,,,,,
171.5274545303464,4.094913094381685,142.08373615149367,85.84554485542617,84.0,81.22707837227033,0,,,,,,
172.5274545303464,4.106817856286447,141.09420317043038,85.70123796235444,84.0,82.55361903290859,0,,,,,,
