Distance (in),Time (s),X (in),Y (in),Velocity (in/s),Orientation (deg),Touch,Way X (in),Way Y (in),Way Velocity (in/s),Way Orientation (deg),Way Turn Radius (in),Touch this Point
0.0,0.0,302.0,30.0,0.0,0.0,0,302.0,30.0,0.0,0.0,3.0,0
0.9999999999999956,0.16666666666666594,301.10923813029177,30.454470341687873,12.0,1.23946456823965,0,280.44,41.0,84.0,30.0,3.0,0
1.9999999999999911,0.2499999999999989,300.21847626058354,30.908940683375747,12.0,2.4789291364793,0,261.38,51.07,84.0,70.0,3.0,0.0
2.9999999999999867,0.33333333333333187,299.3277143908753,31.36341102506362,12.0,3.7183937047189497,0,221.0,72.0,84.0,70.0,3.0,0.0
3.9999999999999822,0.4108590546329374,298.4369525211671,31.817881366751493,13.797889609705152,4.9578582729586,0,205.0,80.0,24.0,70.0,15.0,0.0
4.999999999999978,0.4752811448244446,297.54619065145886,32.272351708439366,17.24736201213144,6.1973228411982495,0,168.64,90.0,24.0,70.0,20.0,0.0
5.999999999999973,0.527990127708405,296.65542878175063,32.72682205012724,20.696834414557728,7.436787409437899,0,150.0,87.0,84.0,70.0,15.0,0.0
6.999999999999969,0.5725900363025254,295.7646669120424,33.18129239181511,24.146306816984016,8.676251977677548,0,102.0,80.0,84.0,135.0,15.0,0.0
7.9999999999999645,0.6112432904174296,294.8739050423342,33.635762733502986,27.595779219410304,9.9157165459172,0,75.0,70.0,48.0,135.0,20.0,0.0
8.999999999999961,0.645349102871757,293.98314317262594,34.09023307519086,31.045251621836595,11.15518111415685,0,60.0,60.0,24.0,135.0,3.0,0.0
9.999999999999957,0.6758648298045762,293.0923813029177,34.54470341687873,34.49472402426289,12.3946456823965,0,,,,,,
10.999999999999954,0.7034742970295078,292.2016194332095,34.999173758566606,37.944196426689174,13.634110250636152,0,,,,,,
11.99999999999995,0.7286829410174889,291.31085756350126,35.45364410025448,41.39366882911546,14.873574818875802,0,,,,,,
12.999999999999947,0.7518748934864314,290.42009569379303,35.90811444194235,44.84314123154175,16.113039387115453,0,,,,,,
13.999999999999943,0.7733489235502672,289.5293338240848,36.362584783630226,48.29261363396804,17.352503955355104,0,,,,,,
14.99999999999994,0.7933419860234936,288.6385719543766,36.8170551253181,51.742086036394326,18.591968523594755,0,,,,,,
15.999999999999936,0.8120451734984473,287.74781008466834,37.27152546700597,55.191558438820614,19.831433091834406,0,,,,,,
16.999999999999932,0.8296148344597675,286.8570482149601,37.725995808693845,58.6410308412469,21.070897660074056,0,,,,,,
17.99999999999993,0.8461805147947264,285.9662863452519,38.18046615038172,62.09050324367319,22.310362228313707,0,,,,,,
18.999999999999925,0.8618507529494174,285.07552447554366,38.63493649206959,65.53997564609948,23.549826796553358,0,,,,,,
19.999999999999922,0.8767173891474574,284.18476260583543,39.089406833757465,68.98944804852577,24.78929136479301,0,,,,,,
20.99999999999992,0.8908588235797396,283.2940007361272,39.54387717544534,72.43892045095207,26.02875593303266,0,,,,,,
21.999999999999915,0.9043425168756364,282.403238866419,39.99834751713321,75.88839285337836,27.26822050127231,0,,,,,,
22.99999999999991,0.9172269349139378,281.51247699671075,40.452817858821085,79.33786525580466,28.50768506951196,0,,,,,,
23.999999999999908,0.9295630798442264,280.6217151270025,40.90728820050896,82.78733765823095,29.747149637751612,0,,,,,,
24.203999669476133,0.9320227920930344,280.44,41.0,83.08545463695177,30.128079605718522,0,,,,,,
25.203999669476154,0.9439927149348862,279.555817461453,41.46714156155132,84.0,31.995386395699924,0,,,,,,
26.203999669476175,0.9558974768396484,278.671634922906,41.934283123102645,84.0,33.86269318568132,0,,,,,,
27.203999669476197,0.9678022387444106,277.78745238435897,42.40142468465397,84.0,35.72999997566272,0,,,,,,
28.203999669476218,0.9797070006491728,276.90326984581196,42.86856624620529,84.0,37.59730676564412,0,,,,,,
29.20399966947624,0.991611762553935,276.01908730726495,43.33570780775661,84.0,39.46461355562552,0,,,,,,
30.20399966947626,1.0035165244586972,275.13490476871794,43.802849369307935,84.0,41.33192034560692,0,,,,,,
31.203999669476282,1.0154212863634593,274.25072223017094,44.26999093085926,84.0,43.199227135588316,0,,,,,,
32.2039996694763,1.0273260482682214,273.3665396916239,44.73713249241058,84.0,45.066533925569715,0,,,,,,
33.203999669476325,1.0392308101729835,272.4823571530769,45.2042740539619,84.0,46.93384071555111,0,,,,,,
34.203999669476346,1.0511355720777456,271.5981746145299,45.671415615513226,84.0,48.80114750553251,0,,,,,,
35.20399966947637,1.0630403339825076,270.7139920759829,46.13855717706455,84.0,50.66845429551391,0,,,,,,
36.20399966947639,1.0749450958872697,269.8298095374359,46.60569873861587,84.0,52.53576108549531,0,,,,,,
37.20399966947641,1.0868498577920318,268.9456269988889,47.072840300167194,84.0,54.40306787547671,0,,,,,,
38.20399966947643,1.0987546196967939,268.0614444603419,47.539981861718516,84.0,56.27037466545811,0,,,,,,
39.20399966947645,1.110659381601556,267.17726192179487,48.00712342326984,84.0,58.137681455439505,0,,,,,,
40.203999669476474,1.122564143506318,266.29307938324786,48.47426498482116,84.0,60.004988245420904,0,,,,,,
41.203999669476495,1.1344689054110801,265.40889684470085,48.941406546372484,84.0,61.8722950354023,0,,,,,,
42.20399966947652,1.1463736673158422,264.52471430615384,49.40854810792381,84.0,63.7396018253837,0,,,,,,
43.20399966947654,1.1582784292206043,263.64053176760683,49.87568966947513,84.0,65.6069086153651,0,,,,,,
44.20399966947656,1.1701831911253664,262.7563492290598,50.34283123102645,84.0,67.4742154053465,0,,,,,,
45.20399966947658,1.1820879530301285,261.8721666905128,50.809972792577774,84.0,69.3415221953279,0,,,,,,
45.76063437900352,1.188714556714973,261.38,51.07,84.0,69.34958102892011,0,,,,,,
46.76063437900354,1.2006193186197351,260.4921755966146,51.530182386400604,84.0,69.36405880663372,0,,,,,,
47.76063437900356,1.2125240805244972,259.60435119322915,51.99036477280121,84.0,69.37853658434733,0,,,,,,
48.760634379003584,1.2244288424292593,258.7165267898437,52.45054715920181,84.0,69.39301436206094,0,,,,,,
49.760634379003605,1.2363336043340214,257.8287023864583,52.910729545602415,84.0,69.40749213977455,0,,,,,,
50.760634379003626,1.2482383662387835,256.9408779830729,53.37091193200302,84.0,69.42196991748816,0,,,,,,
51.76063437900365,1.2601431281435456,256.05305357968746,53.83109431840362,84.0,69.43644769520176,0,,,,,,
52.76063437900364,1.2720478900483074,255.16522917630206,54.291276704804226,84.0,69.45092547291537,0,,,,,,
53.76063437900363,1.2839526519530693,254.27740477291667,54.75145909120483,84.0,69.46540325062898,0,,,,,,
54.760634379003626,1.2958574138578312,253.38958036953127,55.21164147760543,84.0,69.47988102834259,0,,,,,,
55.76063437900362,1.307762175762593,252.50175596614588,55.671823864006036,84.0,69.4943588060562,0,,,,,,
56.76063437900361,1.3196669376673549,251.61393156276048,56.13200625040664,84.0,69.5088365837698,0,,,,,,
57.760634379003605,1.3315716995721167,250.7261071593751,56.59218863680724,84.0,69.52331436148341,0,,,,,,
58.7606343790036,1.3434764614768786,249.8382827559897,57.05237102320785,84.0,69.53779213919702,0,,,,,,
59.76063437900359,1.3553812233816405,248.9504583526043,57.51255340960845,84.0,69.55226991691063,0,,,,,,
60.760634379003584,1.3672859852864023,248.0626339492189,57.972735796009054,84.0,69.56674769462424,0,,,,,,
61.76063437900358,1.3791907471911642,247.1748095458335,58.43291818240966,84.0,69.58122547233785,0,,,,,,
62.76063437900357,1.391095509095926,246.28698514244812,58.89310056881026,84.0,69.59570325005146,0,,,,,,
63.76063437900356,1.403000271000688,245.39916073906272,59.353282955210865,84.0,69.61018102776507,0,,,,,,
64.76063437900356,1.4149050329054498,244.51133633567733,59.81346534161147,84.0,69.62465880547867,0,,,,,,
65.76063437900356,1.4268097948102116,243.62351193229193,60.27364772801207,84.0,69.63913658319228,0,,,,,,
66.76063437900356,1.4387145567149735,242.73568752890654,60.733830114412676,84.0,69.65361436090589,0,,,,,,
67.76063437900356,1.4506193186197354,241.84786312552114,61.19401250081328,84.0,69.6680921386195,0,,,,,,
68.76063437900356,1.4625240805244972,240.96003872213575,61.65419488721388,84.0,69.68256991633311,0,,,,,,
69.76063437900356,1.474428842429259,240.07221431875035,62.11437727361449,84.0,69.69704769404672,0,,,,,,
70.76063437900356,1.486333604334021,239.18438991536496,62.57455966001509,84.0,69.71152547176032,0,,,,,,
71.76063437900356,1.4982383662387828,238.29656551197957,63.034742046415694,84.0,69.72600324947393,0,,,,,,
72.76063437900356,1.5101431281435447,237.40874110859417,63.4949244328163,84.0,69.74048102718754,0,,,,,,
73.76063437900356,1.5220478900483065,236.52091670520878,63.9551068192169,84.0,69.75495880490115,0,,,,,,
74.76063437900356,1.5339526519530684,235.63309230182338,64.41528920561751,84.0,69.76943658261476,0,,,,,,
75.76063437900356,1.5458574138578303,234.745267898438,64.87547159201812,84.0,69.78391436032837,0,,,,,,
76.76063437900356,1.5577621757625921,233.8574434950526,65.33565397841872,84.0,69.79839213804198,0,,,,,,
77.76063437900356,1.569666937667354,232.9696190916672,65.79583636481932,84.0,69.81286991575558,0,,,,,,
78.76063437900356,1.5815716995721159,232.0817946882818,66.25601875121993,84.0,69.82734769346919,0,,,,,,
79.76063437900356,1.5934764614768777,231.1939702848964,66.71620113762053,84.0,69.8418254711828,0,,,,,,
80.76063437900356,1.6053812233816396,230.30614588151101,67.17638352402113,84.0,69.85630324889641,0,,,,,,
81.76063437900356,1.6172859852864014,229.41832147812562,67.63656591042174,84.0,69.87078102661002,0,,,,,,
82.76063437900356,1.6291907471911633,228.53049707474023,68.09674829682234,84.0,69.88525880432363,0,,,,,,
83.76063437900356,1.6410955090959252,227.64267267135483,68.55693068322294,84.0,69.89973658203724,0,,,,,,
84.76063437900356,1.653000271000687,226.75484826796944,69.01711306962355,84.0,69.91421435975084,0,,,,,,
85.76063437900356,1.664905032905449,225.86702386458404,69.47729545602415,84.0,69.92869213746445,0,,,,,,
86.76063437900356,1.6768097948102108,224.97919946119865,69.93747784242476,84.0,69.94316991517806,0,,,,,,
87.76063437900356,1.6887145567149726,224.09137505781325,70.39766022882536,84.0,69.95764769289167,0,,,,,,
88.76063437900356,1.7006193186197345,223.20355065442786,70.85784261522596,84.0,69.97212547060528,0,,,,,,
89.76063437900356,1.7125240805244963,222.31572625104246,71.31802500162657,84.0,69.98660324831889,0,,,,,,
90.76063437900356,1.7244288424292582,221.42790184765707,71.77820738802717,84.0,70.0010810260325,0,,,,,,
91.24260113507088,1.7302222888493706,221.0,72.0,82.38343435580761,70.00105190020675,0,,,,,,
92.24260113507088,1.742612882482866,220.10557280900008,72.44721359549996,79.02933238955792,70.0009914690144,0,,,,,,
93.24260113507088,1.7555407494031148,219.21114561800016,72.89442719099992,75.67523042330824,70.00093103782204,0,,,,,,
94.24260113507088,1.7690545953864252,218.31671842700024,73.34164078649988,72.32112845705855,70.00087060662969,0,,,,,,
95.24260113507088,1.7832100636968293,217.42229123600032,73.78885438199984,68.96702649080886,70.00081017543734,0,,,,,,
96.24260113507088,1.7980711182960514,216.5278640450004,74.2360679774998,65.61292452455918,70.00074974424498,0,,,,,,
97.24260113507088,1.8137117898722666,215.63343685400048,74.68328157299976,62.25882255830949,70.00068931305263,0,,,,,,
98.24260113507088,1.8302184052121457,214.73900966300056,75.13049516849972,58.9047205920598,70.00062888186028,0,,,,,,
99.24260113507088,1.8476924698880883,213.84458247200064,75.57770876399968,55.55061862581012,70.00056845066793,0,,,,,,
100.24260113507088,1.866254448308238,212.95015528100072,76.02492235949964,52.19651665956043,70.00050801947557,0,,,,,,
101.24260113507088,1.886048798596991,212.0557280900008,76.4721359549996,48.842414693310744,70.00044758828322,0,,,,,,
102.24260113507088,1.907250797719581,211.16130089900088,76.91934955049956,45.48831272706106,70.00038715709087,0,,,,,,
103.24260113507088,1.9300759791956292,210.26687370800096,77.36656314599952,42.13421076081137,70.00032672589852,0,,,,,,
104.24260113507088,1.954793482982228,209.37244651700104,77.81377674149948,38.780108794561684,70.00026629470617,0,,,,,,
105.24260113507088,1.9817454394781628,208.47801932600112,78.26099033699944,35.426006828312,70.00020586351381,0,,,,,,
106.24260113507088,2.0113759858152758,207.5835921350012,78.7082039324994,32.07190486206231,70.00014543232146,0,,,,,,
107.24260113507088,2.044276292031025,206.68916494400128,79.15541752799936,28.71780289581263,70.00008500112911,0,,,,,,
108.24260113507088,2.081257512199344,205.79473775300136,79.60263112349932,25.363700929562945,70.00002456993676,0,,,,,,
109.13114495506912,2.116311651939742,205.0,80.0,25.331813299488218,70.00002399541413,0,,,,,,
110.13114495506913,2.1558156873994467,204.03580138727315,80.26518113661353,25.295925784030857,70.00002334882515,0,,,,,,
111.13114495506915,2.195375807307733,203.0716027745463,80.53036227322707,25.260038268573496,70.00002270223618,0,,,,,,
112.13114495506916,2.234992171138808,202.10740416181946,80.7955434098406,25.224150753116135,70.00002205564721,0,,,,,,
113.13114495506917,2.274664939048038,201.1432055490926,81.06072454645414,25.188263237658774,70.00002140905823,0,,,,,,
114.13114495506919,2.314394271875831,200.17900693636577,81.32590568306767,25.152375722201413,70.00002076246926,0,,,,,,
115.1311449550692,2.354180331151549,199.21480832363892,81.59108681968121,25.11648820674405,70.00002011588029,0,,,,,,
116.13114495506922,2.3940232790974503,198.25060971091207,81.85626795629474,25.08060069128669,70.00001946929132,0,,,,,,
117.13114495506923,2.433923278632657,197.28641109818523,82.12144909290828,25.04471317582933,70.00001882270234,0,,,,,,
118.13114495506925,2.4738804933771523,196.32221248545838,82.38663022952181,25.00882566037197,70.00001817611337,0,,,,,,
119.13114495506926,2.513895087655806,195.35801387273153,82.65181136613535,24.972938144914608,70.0000175295244,0,,,,,,
120.13114495506927,2.553967226502429,194.3938152600047,82.91699250274888,24.937050629457246,70.00001688293543,0,,,,,,
121.13114495506929,2.594097075663859,193.42961664727784,83.18217363936242,24.901163113999885,70.00001623634645,0,,,,,,
122.1311449550693,2.634284801604071,192.465418034551,83.44735477597595,24.865275598542524,70.00001558975748,0,,,,,,
123.13114495506932,2.674530571508324,191.50121942182415,83.71253591258949,24.829388083085163,70.00001494316851,0,,,,,,
124.13114495506933,2.7148345532873313,190.5370208090973,83.97771704920302,24.793500567627802,70.00001429657954,0,,,,,,
125.13114495506935,2.7551969155814637,189.57282219637045,84.24289818581656,24.75761305217044,70.00001364999056,0,,,,,,
126.13114495506936,2.795617827764986,188.6086235836436,84.50807932243009,24.72172553671308,70.00001300340159,0,,,,,,
127.13114495506937,2.836097459950319,187.64442497091676,84.77326045904363,24.68583802125572,70.00001235681262,0,,,,,,
128.13114495506937,2.8766359829923345,186.6802263581899,85.03844159565716,24.64995050579836,70.00001171022365,0,,,,,,
129.13114495506937,2.9172335684926862,185.71602774546307,85.3036227322707,24.614062990340997,70.00001106363467,0,,,,,,
130.13114495506937,2.957890388804164,184.75182913273622,85.56880386888423,24.578175474883636,70.0000104170457,0,,,,,,
131.13114495506937,2.9986066170350854,183.78763052000937,85.83398500549777,24.542287959426275,70.00000977045673,0,,,,,,
132.13114495506937,3.039382427053719,182.82343190728253,86.0991661421113,24.506400443968914,70.00000912386776,0,,,,,,
133.13114495506937,3.0802179934927376,181.85923329455568,86.36434727872484,24.470512928511553,70.00000847727878,0,,,,,,
134.13114495506937,3.121113491753708,180.89503468182883,86.62952841533837,24.434625413054192,70.00000783068981,0,,,,,,
135.13114495506937,3.1620690980116075,179.93083606910199,86.8947095519519,24.39873789759683,70.00000718410084,0,,,,,,
136.13114495506937,3.203084989219383,178.96663745637514,87.15989068856544,24.36285038213947,70.00000653751187,0,,,,,,
137.13114495506937,3.244161343112533,178.0024388436483,87.42507182517897,24.32696286668211,70.00000589092289,0,,,,,,
138.13114495506937,3.2852983382137335,177.03824023092145,87.69025296179251,24.291075351224748,70.00000524433392,0,,,,,,
139.13114495506937,3.3264961538374886,176.0740416181946,87.95543409840604,24.255187835767387,70.00000459774495,0,,,,,,
140.13114495506937,3.3677549700948246,175.10984300546775,88.22061523501958,24.219300320310026,70.00000395115597,0,,,,,,
141.13114495506937,3.4090749678980115,174.1456443927409,88.48579637163311,24.183412804852665,70.000003304567,0,,,,,,
142.13114495506937,3.450456328965324,173.18144578001406,88.75097750824665,24.147525289395304,70.00000265797803,0,,,,,,
143.13087452251222,3.491888019982443,172.21487641810057,89.00632604775613,24.111647479090518,70.00000201156391,0,,,,,,
144.1307703591007,3.5333883127802856,171.23728116230362,89.21632414267664,24.0757637017992,70.00000136504228,0,,,,,,
145.1306661956892,3.574950505914571,170.25041211568293,89.37720039589327,24.03987992450788,70.00000071852065,0,,,,,,
146.13056203227768,3.616574784317743,169.25673593690368,89.48855270055569,24.00399614721656,70.00000007199903,0,,,,,,
147.1304578688662,3.655890007507059,168.2587362989162,89.55010273389341,26.861584942005955,70.00000006809984,0,,,,,,
148.1303537054547,3.6912340311623346,167.2589076810673,89.56169665287773,29.719173736795348,70.00000006420065,0,,,,,,
149.13024954204317,3.7233355098938135,166.259749134201,89.52330547874918,32.576762531584656,70.00000006030146,0,,,,,,
150.13024954204317,3.7527423396384343,165.27245435115034,89.36440610379468,35.43464901357967,70.00000005640187,0,,,,,,
151.13024954204317,3.779869375796334,164.2851595680997,89.20550672884018,38.29253549557469,70.00000005250229,0,,,,,,
152.13024954204317,3.8050446721802347,163.29786478504903,89.04660735388568,41.15042197756971,70.0000000486027,0,,,,,,
153.13024954204317,3.828530226623492,162.31057000199837,88.88770797893118,44.008308459564724,70.00000004470311,0,,,,,,
154.13024954204317,3.850538599986171,161.3232752189477,88.72880860397667,46.86619494155974,70.00000004080353,0,,,,,,
155.13024954204317,3.8712446179753934,160.33598043589706,88.56990922902217,49.72408142355476,70.00000003690394,0,,,,,,
156.13024954204317,3.8907938040999235,159.3486856528464,88.41100985406767,52.581967905549774,70.00000003300435,0,,,,,,
157.13024954204317,3.9093085815545514,158.36139086979574,88.25211047911317,55.43985438754479,70.00000002910477,0,,,,,,
158.13024954204317,3.926892916755936,157.37409608674508,88.09321110415867,58.29774086953981,70.00000002520518,0,,,,,,
159.13024954204317,3.943635851926241,156.38680130369443,87.93431172920417,61.155627351534825,70.0000000213056,0,,,,,,
160.13024954204317,3.9596142311103164,155.39950652064377,87.77541235424967,64.01351383352984,70.00000001740601,0,,,,,,
161.13024954204317,3.974894830964035,154.4122117375931,87.61651297929517,66.87140031552485,70.00000001350642,0,,,,,,
162.13024954204317,3.9895360457504943,153.42491695454245,87.45761360434066,69.72928679751986,70.00000000960684,0,,,,,,
163.13024954204317,4.00358923396862,152.4376221714918,87.29871422938616,72.58717327951487,70.00000000570725,0,,,,,,
164.13024954204317,4.01709980500382,151.45032738844114,87.13981485443166,75.44505976150988,70.00000000180766,0,,,,,,
165.13024954204317,4.030108103790698,150.46303260539048,86.98091547947716,78.30294624350489,69.99999999790808,0,,,,,,
165.59367527781782,4.036003694512675,150.0,87.0,78.90801280327845,70.61475307967089,0,,,,,,
166.59367527781782,4.048572693266769,149.0104670189367,86.85569310692827,80.21365146998338,71.94129374046354,0,,,,,,
167.59367527781782,4.060938757842927,148.02093403787342,86.71138621385654,81.5192901366883,73.26783440125618,0,,,,,,
168.59367527781782,4.073108337113186,147.03140105681013,86.56707932078481,82.82492880339322,74.59437506204883,0,,,,,,
169.59367527781782,4.085096953049339,146.04186807574683,86.42277242771308,84.0,75.92091572284147,0,,,,,,
170.59367527781782,4.097001714954101,145.05233509468354,86.27846553464136,84.0,77.24745638363412,0,,,,,,
171.59367527781782,4.108906476858863,144.06280211362025,86.13415864156963,84.0,78.57399704442676,0,,,,,,
