Distance (in),Time (s),X (in),Y (in),Velocity (in/s),Orientation (deg),Touch,Way X (in),Way Y (in),Way Velocity (in/s),Way Orientation (deg),Way Turn Radius (in),Touch this Point
0.0,0.0,205.0,83.12,12.0,0.0,0,205.0,83.12,12.0,0.0,5.0,0
1.000000000000006,0.07698448907143746,204.00047407754073,83.08921152274053,13.979259252394593,1.2370370327466205,0,168.64,82.0,84.0,45.0,3.0,0.0
2.000000000000012,0.14378971477059938,203.00094815508146,83.05842304548105,15.958518504789186,2.474074065493241,0,109.35,74.12,84.0,135.0,7.0,0.0
3.0000000000000178,0.20279321133384307,202.0014222326222,83.02763456822157,17.937777757183778,3.7111110982398614,0,68.87,58.11,60.0,135.0,10.0,0.0
4.000000000000024,0.2556266490965892,201.00189631016292,82.9968460909621,19.917037009578372,4.948148130986482,0,55.0,45.0,36.0,135.0,3.0,0.0
5.00000000000003,0.3034582818203252,200.00237038770365,82.96605761370262,21.896296261972964,6.185185163733102,0,,,,,,
6.000000000000036,0.34715325858842294,199.00284446524438,82.93526913644314,23.875555514367555,7.422222196479723,0,,,,,,
7.000000000000043,0.38737013187317537,198.0033185427851,82.90448065918366,25.854814766762146,8.659259229226343,0,,,,,,
8.000000000000048,0.4246217875737597,197.00379262032584,82.87369218192418,27.834074019156738,9.896296261972964,0,,,,,,
9.000000000000053,0.45931545540715035,196.00426669786657,82.8429037046647,29.81333327155133,11.133333294719584,0,,,,,,
10.000000000000059,0.49177986486410863,195.0047407754073,82.81211522740523,31.79259252394592,12.370370327466205,0,,,,,,
11.000000000000064,0.5222842033259733,194.00521485294803,82.78132675014575,33.77185177634051,13.607407360212825,0,,,,,,
12.00000000000007,0.5510516769678474,193.00568893048876,82.75053827288627,35.7511110287351,14.844444392959446,0,,,,,,
13.000000000000075,0.5782694189668988,192.0061630080295,82.7197497956268,37.730370281129694,16.081481425706066,0,,,,,,
14.00000000000008,0.604095865309704,191.00663708557022,82.68896131836732,39.709629533524286,17.318518458452687,0,,,,,,
15.000000000000085,0.6286663371228536,190.00711116311095,82.65817284110784,41.68888878591888,18.555555491199307,0,,,,,,
16.000000000000092,0.6520973285725501,189.00758524065168,82.62738436384836,43.668148038313475,19.792592523945927,0,,,,,,
17.0000000000001,0.674489844552912,188.0080593181924,82.59659588658889,45.647407290708074,21.029629556692548,0,,,,,,
18.000000000000107,0.6959320301227573,187.00853339573314,82.56580740932941,47.62666654310267,22.26666658943917,0,,,,,,
19.000000000000114,0.7165012646962352,186.00900747327387,82.53501893206993,49.60592579549727,23.50370362218579,0,,,,,,
20.00000000000012,0.7362658466178169,185.0094815508146,82.50423045481045,51.58518504789187,24.74074065493241,0,,,,,,
21.000000000000128,0.7552863606452842,184.00995562835533,82.47344197755098,53.56444430028647,25.97777768767903,0,,,,,,
22.000000000000135,0.7736167973666113,183.01042970589606,82.4426535002915,55.543703552681066,27.21481472042565,0,,,,,,
23.000000000000142,0.7913054766602218,182.0109037834368,82.41186502303202,57.522962805075665,28.45185175317227,0,,,,,,
24.00000000000015,0.8083958149694426,181.01137786097752,82.38107654577254,59.50222205747026,29.68888878591889,0,,,,,,
25.000000000000156,0.8249269670530215,180.01185193851825,82.35028806851307,61.48148130986486,30.92592581866551,0,,,,,,
26.000000000000163,0.8409343660734021,179.01232601605898,82.31949959125359,63.46074056225946,32.16296285141213,0,,,,,,
27.00000000000017,0.8564501807549306,178.0128000935997,82.28871111399411,65.43999981465406,33.39999988415875,0,,,,,,
28.000000000000178,0.871503704437317,177.01327417114044,82.25792263673463,67.41925906704866,34.63703691690537,0,,,,,,
29.000000000000185,0.8861216878471064,176.01374824868117,82.22713415947516,69.39851831944326,35.874073949651994,0,,,,,,
30.000000000000192,0.900328625082794,175.0142223262219,82.19634568221568,71.37777757183785,37.111110982398614,0,,,,,,
31.0000000000002,0.9141470004912632,174.01469640376263,82.1655572049562,73.35703682423245,38.348148015145235,0,,,,,,
32.000000000000206,0.9275975026824643,173.01517048130336,82.13476872769672,75.33629607662705,39.585185047891855,0,,,,,,
33.00000000000021,0.9406992107952951,172.0156445588441,82.10398025043725,77.31555532902165,40.822222080638475,0,,,,,,
34.00000000000022,0.9534697572229919,171.01611863638482,82.07319177317777,79.29481458141625,42.059259113385096,0,,,,,,
35.00000000000023,0.965925470280107,170.01659271392555,82.04240329591829,81.27407383381085,43.296296146131716,0,,,,,,
36.000000000000234,0.9780814997066954,169.01706679146628,82.01161481865881,83.25333308620544,44.53333317887834,0,,,,,,
36.377245635149485,0.9826038127637081,168.64,82.0,83.58413720535667,45.10392974355179,0,,,,,,
37.377245635149485,0.9945381165310702,167.6487166992669,81.86825244712807,84.0,46.61646298849631,0,,,,,,
38.377245635149485,1.0064428784358321,166.65743339853384,81.73650489425614,84.0,48.12899623344083,0,,,,,,
39.377245635149485,1.018347640340594,165.66615009780077,81.60475734138421,84.0,49.64152947838535,0,,,,,,
40.377245635149485,1.0302524022453559,164.6748667970677,81.47300978851229,84.0,51.15406272332987,0,,,,,,
41.377245635149485,1.0421571641501177,163.68358349633462,81.34126223564036,84.0,52.66659596827439,0,,,,,,
42.377245635149485,1.0540619260548796,162.69230019560155,81.20951468276843,84.0,54.179129213218914,0,,,,,,
43.377245635149485,1.0659666879596414,161.70101689486847,81.0777671298965,84.0,55.691662458163435,0,,,,,,
44.377245635149485,1.0778714498644033,160.7097335941354,80.94601957702457,84.0,57.204195703107956,0,,,,,,
45.377245635149485,1.0897762117691652,159.71845029340233,80.81427202415264,84.0,58.71672894805248,0,,,,,,
46.377245635149485,1.101680973673927,158.72716699266925,80.68252447128071,84.0,60.229262192997,0,,,,,,
47.377245635149485,1.113585735578689,157.73588369193618,80.55077691840879,84.0,61.74179543794152,0,,,,,,
48.377245635149485,1.1254904974834508,156.7446003912031,80.41902936553686,84.0,63.25432868288604,0,,,,,,
49.377245635149485,1.1373952593882126,155.75331709047003,80.28728181266493,84.0,64.76686192783056,0,,,,,,
50.377245635149485,1.1493000212929745,154.76203378973696,80.155534259793,84.0,66.27939517277508,0,,,,,,
51.377245635149485,1.1612047831977363,153.7707504890039,80.02378670692107,84.0,67.7919284177196,0,,,,,,
52.377245635149485,1.1731095451024982,152.77946718827081,79.89203915404914,84.0,69.30446166266412,0,,,,,,
53.377245635149485,1.18501430700726,151.78818388753774,79.76029160117722,84.0,70.81699490760865,0,,,,,,
54.377245635149485,1.196919068912022,150.79690058680467,79.62854404830529,84.0,72.32952815255317,0,,,,,,
55.377245635149485,1.2088238308167838,149.8056172860716,79.49679649543336,84.0,73.84206139749769,0,,,,,,
56.377245635149485,1.2207285927215457,148.81433398533852,79.36504894256143,84.0,75.35459464244221,0,,,,,,
57.377245635149485,1.2326333546263075,147.82305068460545,79.2333013896895,84.0,76.86712788738673,0,,,,,,
58.377245635149485,1.2445381165310694,146.83176738387237,79.10155383681757,84.0,78.37966113233125,0,,,,,,
59.377245635149485,1.2564428784358312,145.8404840831393,78.96980628394564,84.0,79.89219437727577,0,,,,,,
60.377245635149485,1.268347640340593,144.84920078240623,78.83805873107372,84.0,81.40472762222029,0,,,,,,
61.377245635149485,1.280252402245355,143.85791748167316,78.70631117820179,84.0,82.91726086716481,0,,,,,,
62.377245635149485,1.2921571641501168,142.86663418094008,78.57456362532986,84.0,84.42979411210933,0,,,,,,
63.377245635149485,1.3040619260548787,141.875350880207,78.44281607245793,84.0,85.94232735705386,0,,,,,,
64.37724563514948,1.3159666879596406,140.88406757947394,78.311068519586,84.0,87.45486060199836,0,,,,,,
65.37724563514948,1.3278714498644024,139.89278427874086,78.17932096671407,84.0,88.96739384694288,0,,,,,,
66.37724563514948,1.3397762117691643,138.9015009780078,78.04757341384214,84.0,90.4799270918874,0,,,,,,
67.37724563514948,1.3516809736739261,137.91021767727472,77.91582586097022,84.0,91.99246033683193,0,,,,,,
68.37724563514948,1.363585735578688,136.91893437654164,77.78407830809829,84.0,93.50499358177645,0,,,,,,
69.37724563514948,1.3754904974834499,135.92765107580857,77.65233075522636,84.0,95.01752682672097,0,,,,,,
70.37724563514948,1.3873952593882117,134.9363677750755,77.52058320235443,84.0,96.53006007166549,0,,,,,,
71.37724563514948,1.3993000212929736,133.94508447434242,77.3888356494825,84.0,98.04259331661001,0,,,,,,
72.37724563514948,1.4112047831977355,132.95380117360935,77.25708809661057,84.0,99.55512656155453,0,,,,,,
73.37724563514948,1.4231095451024973,131.96251787287628,77.12534054373864,84.0,101.06765980649905,0,,,,,,
74.37724563514948,1.4350143070072592,130.9712345721432,76.99359299086672,84.0,102.58019305144357,0,,,,,,
75.37724563514948,1.446919068912021,129.97995127141013,76.86184543799479,84.0,104.0927262963881,0,,,,,,
76.37724563514948,1.458823830816783,128.98866797067706,76.73009788512286,84.0,105.60525954133261,0,,,,,,
77.37724563514948,1.4707285927215448,127.99738466994398,76.59835033225093,84.0,107.11779278627714,0,,,,,,
78.37724563514948,1.4826333546263066,127.00610136921091,76.466602779379,84.0,108.63032603122166,0,,,,,,
79.37724563514948,1.4945381165310685,126.01481806847784,76.33485522650707,84.0,110.14285927616618,0,,,,,,
80.37724563514948,1.5064428784358304,125.02353476774476,76.20310767363515,84.0,111.6553925211107,0,,,,,,
81.37724563514948,1.5183476403405922,124.03225146701169,76.07136012076322,84.0,113.16792576605522,0,,,,,,
82.37724563514948,1.530252402245354,123.04096816627862,75.93961256789129,84.0,114.68045901099974,0,,,,,,
83.37724563514948,1.542157164150116,122.04968486554554,75.80786501501936,84.0,116.19299225594426,0,,,,,,
84.37724563514948,1.5540619260548778,121.05840156481247,75.67611746214743,84.0,117.70552550088878,0,,,,,,
85.37724563514948,1.5659666879596397,120.0671182640794,75.5443699092755,84.0,119.2180587458333,0,,,,,,
86.37724563514948,1.5778714498644015,119.07583496334632,75.41262235640357,84.0,120.73059199077782,0,,,,,,
87.37724563514948,1.5897762117691634,118.08455166261325,75.28087480353165,84.0,122.24312523572235,0,,,,,,
88.37724563514948,1.6016809736739253,117.09326836188018,75.14912725065972,84.0,123.75565848066687,0,,,,,,
89.37724563514948,1.6135857355786871,116.1019850611471,75.01737969778779,84.0,125.26819172561139,0,,,,,,
90.37724563514948,1.625490497483449,115.11070176041403,74.88563214491586,84.0,126.78072497055591,0,,,,,,
91.37724563514948,1.6373952593882108,114.11941845968096,74.75388459204393,84.0,128.29325821550043,0,,,,,,
92.37724563514948,1.6493000212929727,113.12813515894788,74.622137039172,84.0,129.80579146044496,0,,,,,,
93.37724563514948,1.6612047831977346,112.13685185821481,74.49038948630007,84.0,131.3183247053895,0,,,,,,
94.37724563514948,1.6731095451024964,111.14556855748174,74.35864193342815,84.0,132.83085795033404,0,,,,,,
95.37724563514948,1.6850143070072583,110.15428525674866,74.22689438055622,84.0,134.34339119527857,0,,,,,,
96.18860325224429,1.6946988386512094,109.35,74.12,83.55743012138016,134.35549933190384,0,,,,,,
97.18860325224429,1.7067058465231089,108.42008860626021,73.75221636823682,83.01196179854057,134.3704226362152,0,,,,,,
98.18860325224429,1.7187920120404596,107.49017721252042,73.38443273647363,82.46649347570097,134.38534594052658,0,,,,,,
99.18860325224429,1.730958385842348,106.56026581878064,73.01664910471044,81.92102515286138,134.40026924483794,0,,,,,,
100.18860325224429,1.7432060396248972,105.63035442504085,72.64886547294725,81.37555683002178,134.4151925491493,0,,,,,,
101.18860325224429,1.755536066707754,104.70044303130106,72.28108184118406,80.83008850718218,134.43011585346068,0,,,,,,
102.18860325224429,1.767949582619757,103.77053163756128,71.91329820942087,80.28462018434259,134.44503915777204,0,,,,,,
103.18860325224429,1.7804477257045672,102.84062024382149,71.54551457765768,79.73915186150299,134.4599624620834,0,,,,,,
104.18860325224429,1.7930316577470828,101.9107088500817,71.1777309458945,79.1936835386634,134.47488576639478,0,,,,,,
105.18860325224429,1.8057025646215046,100.98079745634192,70.8099473141313,78.6482152158238,134.48980907070614,0,,,,,,
106.18860325224429,1.8184616569619503,100.05088606260213,70.44216368236812,78.1027468929842,134.5047323750175,0,,,,,,
107.18860325224429,1.8313101708565709,99.12097466886235,70.07438005060493,77.5572785701446,134.51965567932888,0,,,,,,
108.18860325224429,1.8442493685661598,98.19106327512256,69.70659641884174,77.01181024730501,134.53457898364024,0,,,,,,
109.18860325224429,1.857280539268304,97.26115188138277,69.33881278707855,76.46634192446541,134.5495022879516,0,,,,,,
110.18860325224429,1.8704049998281702,96.33124048764299,68.97102915531536,75.92087360162581,134.56442559226298,0,,,,,,
111.18860325224429,1.8836240955970809,95.4013290939032,68.60324552355218,75.37540527878622,134.57934889657434,0,,,,,,
112.18860325224429,1.8969392012400912,94.47141770016341,68.23546189178899,74.82993695594662,134.5942722008857,0,,,,,,
113.18860325224429,1.9103517215938377,93.54150630642363,67.8676782600258,74.28446863310702,134.60919550519708,0,,,,,,
114.18860325224429,1.9238630925559996,92.61159491268384,67.49989462826261,73.73900031026743,134.62411880950845,0,,,,,,
115.18860325224429,1.9374747820077807,91.68168351894406,67.13211099649942,73.19353198742783,134.6390421138198,0,,,,,,
116.18860325224429,1.9511882907708915,90.75177212520427,66.76432736473623,72.64806366458824,134.65396541813118,0,,,,,,
117.18860325224429,1.9650051536005968,89.82186073146448,66.39654373297304,72.10259534174864,134.66888872244255,0,,,,,,
118.18860325224429,1.9789269402164653,88.8919493377247,66.02876010120985,71.55712701890904,134.6838120267539,0,,,,,,
119.18860325224429,1.9929552563725583,87.96203794398491,65.66097646944667,71.01165869606945,134.69873533106528,0,,,,,,
120.18860325224429,2.007091744968878,87.03212655024512,65.29319283768348,70.46619037322985,134.71365863537665,0,,,,,,
121.18860325224429,2.0213380872060016,86.10221515650534,64.92540920592029,69.92072205039025,134.728581939688,0,,,,,,
122.18860325224429,2.0356960037849294,85.17230376276555,64.5576255741571,69.37525372755066,134.74350524399938,0,,,,,,
123.18860325224429,2.0501672561542876,84.24239236902577,64.18984194239391,68.82978540471106,134.75842854831075,0,,,,,,
124.18860325224429,2.0647536478071498,83.31248097528598,63.822058310630716,68.28431708187146,134.7733518526221,0,,,,,,
125.18860325224429,2.07945702562986,82.38256958154619,63.45427467886752,67.73884875903187,134.78827515693348,0,,,,,,
126.18860325224429,2.094279281305384,81.4526581878064,63.086491047104325,67.19338043619227,134.80319846124485,0,,,,,,
127.18860325224429,2.1092223527738523,80.52274679406662,62.71870741534113,66.64791211335267,134.8181217655562,0,,,,,,
128.1886032522443,2.1242882257531184,79.59283540032683,62.35092378357793,66.10244379051308,134.83304506986758,0,,,,,,
129.1886032522443,2.1394789353223134,78.66292400658705,61.98314015181474,65.55697546767348,134.84796837417895,0,,,,,,
130.1886032522443,2.1547965675715557,77.73301261284726,61.61535652005154,65.01150714483389,134.8628916784903,0,,,,,,
131.1886032522443,2.170243261321161,76.80310121910748,61.247572888288346,64.46603882199429,134.87781498280168,0,,,,,,
132.1886032522443,2.1858212099138927,75.87318982536769,60.87978925652515,63.92057049915469,134.89273828711305,0,,,,,,
133.1886032522443,2.201532663084016,74.9432784316279,60.512005624761954,63.375102176315096,134.90766159142441,0,,,,,,
134.1886032522443,2.2173799289071296,74.01336703788812,60.14422199299876,62.8296338534755,134.92258489573578,0,,,,,,
135.1886032522443,2.2333653758350085,73.08345564414833,59.77643836123556,62.2841655306359,134.93750820004715,0,,,,,,
136.1886032522443,2.24949143481994,72.15354425040854,59.40865472947237,61.73869720779631,134.95243150435851,0,,,,,,
137.1886032522443,2.2657606015333207,71.22363285666876,59.04087109770917,61.19322888495671,134.96735480866988,0,,,,,,
138.18832513376103,2.2821708529814813,70.29687922117108,58.66594238518476,60.647912266939734,134.9822739625345,0,,,,,,
139.18790851917458,2.2987270195317753,69.40394080375839,58.2166897534692,60.102671194159875,134.9971910495796,0,,,,,,
140.18749190458814,2.3155397071962835,68.56031378425773,57.68053642058457,58.805549235543374,134.9973422175245,0,,,,,,
141.18749190458814,2.3327346252617915,67.83357677551174,56.99362061779727,57.50788665176619,134.99749344847442,0,,,,,,
142.18749190458814,2.3503219733749585,67.10683976676576,56.306704815009965,56.21022406798901,134.99764467942433,0,,,,,,
143.18749190458814,2.3683200823141957,66.38010275801977,55.61978901222266,54.91256148421183,134.99779591037424,0,,,,,,
144.18749190458814,2.3867485979443552,65.65336574927379,54.93287320943536,53.614898900434646,134.99794714132415,0,,,,,,
145.18749190458814,2.4056286100945994,64.9266287405278,54.24595740664805,52.317236316657464,134.99809837227406,0,,,,,,
146.18749190458814,2.4249827976202374,64.19989173178182,53.55904160386075,51.01957373288028,134.99824960322397,0,,,,,,
147.18749190458814,2.444835592150147,63.473154723035826,52.872125801073445,49.7219111491031,134.99840083417388,0,,,,,,
148.18749190458814,2.4652133634844438,62.746417714289834,52.18520999828614,48.42424856532592,134.9985520651238,0,,,,,,
149.18749190458814,2.4861446301707524,62.01968070554384,51.498294195498836,47.126585981548736,134.9987032960737,0,,,,,,
150.18749190458814,2.507660299477008,61.29294369679785,50.81137839271153,45.828923397771554,134.9988545270236,0,,,,,,
151.18749190458814,2.5297939418267497,60.56620668805186,50.12446258992423,44.53126081399437,134.99900575797352,0,,,,,,
152.18749190458814,2.552582105811523,59.839469679305864,49.437546787136924,43.23359823021719,134.99915698892343,0,,,,,,
153.18749190458814,2.576064681199295,59.11273267055987,48.75063098434962,41.93593564644001,134.99930821987334,0,,,,,,
154.18749190458814,2.600285318990033,58.38599566181388,48.063715181562316,40.638273062662826,134.99945945082325,0,,,,,,
155.18749190458814,2.6252919196255746,57.65925865306789,47.37679937877501,39.340610478885644,134.99961068177316,0,,,,,,
156.18749190458814,2.6511372030685254,56.932521644321895,46.68988357598771,38.04294789510846,134.99976191272307,0,,,,,,
157.18749190458814,2.677879377796458,56.2057846355759,46.0029677732004,36.74528531133128,134.99991314367298,0,,,,,,
158.18749190458814,2.7053725684745964,55.47904762682991,45.3160519704131,36.0,135.0000643746229,0,,,,,,
158.76140433412192,2.7213145804060903,55.0,45.0,36.0,135.00015116794478,0,,,,,,
