Distance (in),Time (s),X (in),Y (in),Velocity (in/s),Orientation (deg),Touch,Rotational Velocity (deg/s),Way X (in),Way Y (in),Way Velocity (in/s),Way Orientation (deg),Way Turn Radius (in),Touch this Point
0.0,0.0,28.0,50.0,24.0,135.0,0,0.0,28.0,50.0,24.0,135.0,3.0,0.0
0.9999999999999996,0.03985658974115251,28.924678098474715,50.3807498052543,26.17990783930442,135.0,0,0.0,45.0,57.0,180.0,135.0,3.0,0
1.9999999999999991,0.07652710933671134,29.84935619694943,50.761499610508594,28.35981567860884,135.0,0,0.0,85.0,67.0,180.0,135.0,3.0,0
2.9999999999999987,0.11048323237745145,30.774034295424144,51.14224941576289,30.53972351791326,135.0,0,0.0,115.0,74.0,60.0,135.0,3.0,0.0
3.9999999999999982,0.1420991096488502,31.69871239389886,51.52299922101719,32.71963135721768,135.0,0,0.0,,,,,,
4.999999999999998,0.17167652066442182,32.623390492373574,51.903749026271484,34.8995391965221,135.0,0,-0.0,,,,,,
5.999999999999998,0.1994624079724757,33.54806859084829,52.28449883152578,37.07944703582652,135.0,0,-0.0,,,,,,
6.999999999999998,0.22566140441903804,34.472746689323,52.66524863678008,39.25935487513094,135.0,0,-0.0,,,,,,
7.999999999999998,0.25044497642732216,35.39742478779772,53.045998442034374,41.43926271443536,135.0,0,-0.0,,,,,,
8.999999999999998,0.27395822400495307,36.32210288627243,53.42674824728867,43.61917055373978,135.0,0,-0.0,,,,,,
9.999999999999998,0.29632502299237534,37.24678098474715,53.80749805254297,45.7990783930442,135.0,0,0.0,,,,,,
10.999999999999998,0.3176519719754795,38.17145908322186,54.188247857797265,47.97898623234862,135.0,0,0.0,,,,,,
11.999999999999998,0.3380314624821483,39.09613718169658,54.56899766305156,50.15889407165304,135.0,0,0.0,,,,,,
12.999999999999998,0.35754409621334277,40.02081528017129,54.94974746830586,52.33880191095746,135.0,0,0.0,,,,,,
13.999999999999998,0.376260609155744,40.945493378646006,55.330497273560155,54.51870975026188,135.0,0,0.0,,,,,,
14.999999999999998,0.3942434185599741,41.87017147712072,55.71124707881445,56.6986175895663,135.0,0,0.0,,,,,,
15.999999999999998,0.4115478781422719,42.794849575595435,56.09199688406875,58.87852542887072,135.0,0,0.0,,,,,,
16.999999999999996,0.428223305147653,43.71952767407015,56.472746689323046,61.058433268175136,135.0,0,0.0,,,,,,
17.999999999999996,0.44431382728747554,44.644205772544865,56.85349649457734,63.238341107479556,135.0,0,0.0,,,,,,
18.38477631085024,0.4503778226531887,45.0,57.0,63.666871592989295,135.0,0,0.0,,,,,,
19.384776310850235,0.4659483917800213,45.97014250014533,57.24253562503633,64.78058486853583,135.0,0,0.0,,,,,,
20.38477631085023,0.4812535518374967,46.94028500029066,57.485071250072664,65.89429814408236,135.0,0,0.0,,,,,,
21.384776310850228,0.49630219927308716,47.910427500435986,57.727606875109,67.00801141962889,135.0,0,0.0,,,,,,
22.384776310850224,0.5111027905974188,48.880570000581315,57.97014250014533,68.12172469517542,135.0,0,0.0,,,,,,
23.38477631085022,0.5256633709208834,49.850712500726644,58.21267812518166,69.23543797072195,135.0,0,0.0,,,,,,
24.384776310850217,0.5399916002133801,50.82085500087197,58.45521375021799,70.34915124626848,135.0,0,0.0,,,,,,
25.384776310850214,0.5540947775017613,51.7909975010173,58.697749375254325,71.462864521815,135.0,0,0.0,,,,,,
26.38477631085021,0.5679798631963323,52.76114000116263,58.94028500029066,72.57657779736154,135.0,0,0.0,,,,,,
27.384776310850206,0.5816534997173539,53.73128250130796,59.18282062532699,73.69029107290807,135.0,0,0.0,,,,,,
28.384776310850203,0.5951220305745485,54.70142500145329,59.42535625036332,74.8040043484546,135.0,0,0.0,,,,,,
29.3847763108502,0.6083915180367836,55.671567501598616,59.667891875399654,75.91771762400113,135.0,0,-0.0,,,,,,
30.384776310850196,0.6214677595151209,56.641710001743945,59.910427500435986,77.03143089954766,135.0,0,-0.0,,,,,,
31.384776310850192,0.6343563027700417,57.611852501889274,60.15296312547232,78.14514417509419,135.0,0,-0.0,,,,,,
32.38477631085019,0.6470624600426851,58.5819950020346,60.39549875050865,79.25885745064073,135.0,0,-0.0,,,,,,
33.38477631085019,0.6595913212001794,59.55213750217993,60.63803437554498,80.37257072618728,135.0,0,-0.0,,,,,,
34.38477631085019,0.6719477659764749,60.52228000232526,60.880570000581315,81.48628400173382,135.0,0,-0.0,,,,,,
35.38477631085019,0.6841364753823463,61.49242250247059,61.12310562561765,82.59999727728037,135.0,0,-0.0,,,,,,
36.38477631085019,0.6961619423513291,62.46256500261592,61.36564125065398,83.71371055282691,135.0,0,-0.0,,,,,,
37.38477631085019,0.7080284816821756,63.43270750276125,61.60817687569031,84.82742382837345,135.0,0,-0.0,,,,,,
38.38477631085019,0.7197402393328883,64.40285000290658,61.850712500726644,85.94113710392,135.0,0,-0.0,,,,,,
39.38477631085019,0.7313012011164214,65.3729925030519,62.093248125762976,87.05485037946654,135.0,0,-0.0,,,,,,
40.38477631085019,0.7427152008436865,66.34313500319723,62.33578375079931,88.16856365501309,135.0,0,-0.0,,,,,,
41.38477631085019,0.7539859279554892,67.31327750334256,62.57831937583564,89.28227693055963,135.0,0,-0.0,,,,,,
42.38477631085019,0.76511693468141,68.28342000348789,62.82085500087197,90.39599020610618,135.0,0,0.0,,,,,,
43.38477631085019,0.776111642760383,69.25356250363322,63.063390625908305,91.50970348165272,135.0,0,0.0,,,,,,
44.38477631085019,0.7869733497547883,70.22370500377855,63.30592625094464,92.62341675719927,135.0,0,0.0,,,,,,
45.38477631085019,0.7977052349872044,71.19384750392388,63.54846187598097,93.73713003274581,135.0,0,0.0,,,,,,
46.38477631085019,0.8083103651265651,72.1639900040692,63.7909975010173,94.85084330829235,135.0,0,0.0,,,,,,
47.38477631085019,0.8187916994482739,73.13413250421453,64.03353312605364,95.9645565838389,135.0,0,0.0,,,,,,
48.38477631085019,0.8291520947908494,74.10427500435986,64.27606875108998,97.07826985938544,135.0,0,0.0,,,,,,
49.38477631085019,0.8393943102298708,75.07441750450519,64.51860437612632,98.19198313493199,135.0,0,0.0,,,,,,
50.38477631085019,0.8495210114883539,76.04456000465052,64.76114000116266,99.30569641047853,135.0,0,0.0,,,,,,
51.38477631085019,0.859534775101195,77.01470250479585,65.003675626199,100.41940968602508,135.0,0,0.0,,,,,,
52.38477631085019,0.8694380923499565,77.98484500494118,65.24621125123534,101.53312296157162,135.0,0,0.0,,,,,,
53.38477631085019,0.8792333729830267,78.9549875050865,65.48874687627168,102.64683623711817,135.0,0,0.0,,,,,,
54.38477631085019,0.8889229487350518,79.92513000523184,65.73128250130802,103.76054951266471,135.0,0,0.0,,,,,,
55.38477631085019,0.8985090766584962,80.89527250537716,65.97381812634436,104.87426278821125,135.0,0,0.0,,,,,,
56.38477631085019,0.9079939422792395,81.8654150055225,66.2163537513807,105.9879760637578,135.0,0,0.0,,,,,,
57.38477631085019,0.9173796625872468,82.83555750566782,66.45888937641703,107.10168933930434,135.0,0,0.0,,,,,,
58.38477631085019,0.926668288872548,83.80570000581315,66.70142500145337,108.21540261485089,135.0,0,0.0,,,,,,
59.38477631085019,0.9358618094160305,84.77584250595848,66.94396062648971,109.32911589039743,135.0,0,0.0,,,,,,
59.61583256702691,0.9379787924698364,85.0,67.0,108.95912761851034,135.0,0,0.0,,,,,,
60.61583256702691,0.9472244843451311,85.97384120974179,67.22722961560642,107.35783675537041,135.0,0,0.0,,,,,,
61.61583256702691,0.956609116086796,86.94768241948358,67.45445923121284,105.75654589223049,135.0,0,0.0,,,,,,
62.61583256702691,0.9661369272494931,87.92152362922538,67.68168884681926,104.15525502909057,135.0,0,0.0,,,,,,
63.61583256702691,0.9758123544403475,88.89536483896717,67.90891846242567,102.55396416595065,135.0,0,0.0,,,,,,
64.6158325670269,0.9856400437229981,89.86920604870896,68.1361480780321,100.95267330281074,135.0,0,0.0,,,,,,
65.6158325670269,0.9956248640132636,90.84304725845075,68.36337769363851,99.35138243967081,135.0,0,0.0,,,,,,
66.6158325670269,1.0057719215631,91.81688846819254,68.59060730924493,97.75009157653089,135.0,0,0.0,,,,,,
67.6158325670269,1.016086575640698,92.79072967793434,68.81783692485135,96.14880071339097,135.0,0,0.0,,,,,,
68.6158325670269,1.0265744555272496,93.76457088767613,69.04506654045777,94.54750985025105,135.0,0,0.0,,,,,,
69.6158325670269,1.0372414789653235,94.73841209741792,69.27229615606419,92.94621898711112,135.0,0,0.0,,,,,,
70.6158325670269,1.0480938722102062,95.71225330715971,69.4995257716706,91.3449281239712,135.0,0,0.0,,,,,,
71.6158325670269,1.0591381918542992,96.6860945169015,69.72675538727702,89.74363726083128,135.0,0,-0.0,,,,,,
72.6158325670269,1.0703813486161007,97.6599357266433,69.95398500288344,88.14234639769136,135.0,0,-0.0,,,,,,
73.6158325670269,1.0818306333098793,98.63377693638509,70.18121461848986,86.54105553455143,135.0,0,-0.0,,,,,,
74.6158325670269,1.093493745240402,99.60761814612688,70.40844423409628,84.93976467141151,135.0,0,-0.0,,,,,,
75.6158325670269,1.1053788232996276,100.58145935586867,70.6356738497027,83.33847380827159,135.0,0,-0.0,,,,,,
76.6158325670269,1.117494480079886,101.55530056561047,70.86290346530912,81.73718294513166,135.0,0,-0.0,,,,,,
77.6158325670269,1.129849839361625,102.52914177535226,71.09013308091554,80.13589208199174,135.0,0,-0.0,,,,,,
78.6158325670269,1.14245457738439,103.50298298509405,71.31736269652195,78.53460121885182,135.0,0,-0.0,,,,,,
79.6158325670269,1.15531896836864,104.47682419483584,71.54459231212837,76.9333103557119,135.0,0,-0.0,,,,,,
80.6158325670269,1.1684539348248437,105.45066540457763,71.77182192773479,75.33201949257197,135.0,0,-0.0,,,,,,
81.6158325670269,1.1818711032669755,106.42450661431943,71.99905154334121,73.73072862943205,135.0,0,0.0,,,,,,
82.6158325670269,1.1955828660423855,107.39834782406122,72.22628115894763,72.12943776629213,135.0,0,0.0,,,,,,
83.6158325670269,1.2096024501018958,108.37218903380301,72.45351077455405,70.5281469031522,135.0,0,0.0,,,,,,
84.6158325670269,1.2239439936664183,109.3460302435448,72.68074039016047,68.92685604001228,135.0,0,0.0,,,,,,
85.6158325670269,1.2386226319037266,110.3198714532866,72.90797000576688,67.32556517687236,135.0,0,0.0,,,,,,
86.6158325670269,1.2536545929166614,111.29371266302839,73.1351996213733,65.72427431373244,135.0,0,0.0,,,,,,
87.6158325670269,1.269057305568707,112.26755387277018,73.36242923697972,64.12298345059251,135.0,0,0.0,,,,,,
88.6158325670269,1.284849520942997,113.24139508251197,73.58965885258614,62.52169258745259,135.0,0,0.0,,,,,,
89.6158325670269,1.3010514495569818,114.21523629225376,73.81688846819256,60.92040172431267,135.0,0,0.0,,,,,,
90.42167616852565,1.3143799464856638,115.0,74.0,60.0,135.0,0,0.0,,,,,,
