Distance (in),Time (s),X (in),Y (in),Velocity (in/s),Orientation (deg),Touch,Way X (in),Way Y (in),Way Velocity (in/s),Way Orientation (deg),Way Turn Radius (in),Touch this Point
0.0,0.0,302.0,25.0,24.0,0.0,0,302.0,25.0,24.0,0.0,3.0,0.0
0.9999999999999956,0.04001348990055473,301.10923813029177,25.454470341687873,25.98314330918344,2.8920839925591832,0,280.44,36.0,72.0,70.0,3.0,0.0
1.9999999999999911,0.0770852439985281,300.21847626058354,25.908940683375747,27.96628661836688,5.7841679851183665,0,249.0,58.0,72.0,70.0,3.0,0.0
2.9999999999999867,0.11161818461084592,299.3277143908753,26.36341102506362,29.94942992755032,8.67625197767755,0,236.0,68.0,72.0,70.0,3.0,0.0
3.9999999999999822,0.1439377589253748,298.4369525211671,26.817881366751493,31.93257323673376,11.568335970236733,0,225.0,77.0,24.0,70.0,30.0,0.0
4.999999999999978,0.17431060545793473,297.54619065145886,27.272351708439366,33.9157165459172,14.460419962795916,0,193.0,88.11,24.0,70.0,3.0,0.0
5.999999999999973,0.20295791814106134,296.65542878175063,27.72682205012724,35.89885985510064,17.3525039553551,0,170.0,90.0,84.0,70.0,35.0,0.0
6.999999999999969,0.23006521830200583,295.7646669120424,28.181292391815113,37.88200316428408,20.244587947914283,0,150.0,90.0,84.0,90.0,20.0,0.0
7.9999999999999645,0.2557896340435297,294.8739050423342,28.635762733502986,39.86514647346752,23.136671940473466,0,130.0,87.0,84.0,135.0,3.0,0.0
8.999999999999961,0.2802654129562081,293.98314317262594,29.09023307519086,41.84828978265096,26.028755933032652,0,102.0,85.0,60.0,135.0,15.0,0
9.999999999999957,0.3036081588580576,293.0923813029177,29.544703416878733,43.8314330918344,28.92083992559184,0,87.0,83.0,24.0,135.0,20.0,0
10.999999999999954,0.325918131285324,292.2016194332095,29.999173758566606,45.81457640101784,31.812923918151025,0,68.0,73.0,12.0,135.0,3.0,0
11.99999999999995,0.3472828459978424,291.31085756350126,30.45364410025448,47.79771971020128,34.70500791071021,0,,,,,,
12.999999999999947,0.36777914696936276,290.42009569379303,30.908114441942352,49.78086301938472,37.597091903269394,0,,,,,,
13.999999999999943,0.3874748737238757,289.5293338240848,31.362584783630226,51.76400632856816,40.48917589582858,0,,,,,,
14.99999999999994,0.40643021528641543,288.6385719543766,31.8170551253181,53.7471496377516,43.38125988838777,0,,,,,,
15.999999999999936,0.4246988188706916,287.74781008466834,32.27152546700597,55.73029294693504,46.27334388094695,0,,,,,,
16.999999999999932,0.44232870475376396,286.8570482149601,32.725995808693845,57.71343625611848,49.16542787350614,0,,,,,,
17.99999999999993,0.4593630266215165,285.9662863452519,33.18046615038172,59.69657956530192,52.057511866065326,0,,,,,,
18.999999999999925,0.4758407076827942,285.07552447554366,33.63493649206959,61.67972287448536,54.94959585862451,0,,,,,,
19.999999999999922,0.49179697613893775,284.18476260583543,34.089406833757465,63.6628661836688,57.8416798511837,0,,,,,,
20.99999999999992,0.5072638185311273,283.2940007361272,34.54387717544534,65.64600949285224,60.733763843742885,0,,,,,,
21.999999999999915,0.5222703656293387,282.403238866419,34.99834751713321,67.62915280203569,63.62584783630207,0,,,,,,
22.99999999999991,0.536843222560222,281.51247699671075,35.452817858821085,69.61229611121914,66.51793182886125,0,,,,,,
23.999999999999908,0.5510067525713106,280.6217151270025,35.90728820050896,71.59543942040258,69.41001582142043,0,,,,,,
24.203999669476133,0.5538518473667462,280.44,36.0,71.80904032031104,69.41315232704521,0,,,,,,
25.203999669476126,0.5677591788915607,279.62067014739284,36.57332241594649,72.0,69.42852737952855,0,,,,,,
26.20399966947612,0.5816480677804495,278.8013402947857,37.146644831892985,72.0,69.44390243201188,0,,,,,,
27.20399966947611,0.5955369566693384,277.98201044217853,37.71996724783948,72.0,69.45927748449522,0,,,,,,
28.203999669476104,0.6094258455582272,277.1626805895714,38.29328966378597,72.0,69.47465253697855,0,,,,,,
29.203999669476097,0.623314734447116,276.3433507369642,38.86661207973246,72.0,69.49002758946189,0,,,,,,
30.20399966947609,0.6372036233360049,275.52402088435707,39.439934495678955,72.0,69.50540264194522,0,,,,,,
31.203999669476083,0.6510925122248937,274.7046910317499,40.01325691162545,72.0,69.52077769442856,0,,,,,,
32.203999669476076,0.6649814011137826,273.88536117914276,40.58657932757194,72.0,69.5361527469119,0,,,,,,
33.20399966947607,0.6788702900026714,273.0660313265356,41.15990174351843,72.0,69.55152779939523,0,,,,,,
34.20399966947606,0.6927591788915602,272.24670147392845,41.733224159464925,72.0,69.56690285187857,0,,,,,,
35.203999669476055,0.7066480677804491,271.4273716213213,42.30654657541142,72.0,69.5822779043619,0,,,,,,
36.20399966947605,0.7205369566693379,270.60804176871414,42.87986899135791,72.0,69.59765295684524,0,,,,,,
37.20399966947604,0.7344258455582268,269.788711916107,43.4531914073044,72.0,69.61302800932857,0,,,,,,
38.20399966947603,0.7483147344471156,268.96938206349984,44.026513823250895,72.0,69.62840306181191,0,,,,,,
39.203999669476026,0.7622036233360044,268.1500522108927,44.59983623919739,72.0,69.64377811429524,0,,,,,,
40.20399966947602,0.7760925122248933,267.3307223582855,45.17315865514388,72.0,69.65915316677858,0,,,,,,
41.20399966947601,0.7899814011137821,266.5113925056784,45.74648107109037,72.0,69.67452821926192,0,,,,,,
42.203999669476005,0.803870290002671,265.6920626530712,46.319803487036864,72.0,69.68990327174525,0,,,,,,
43.203999669476,0.8177591788915598,264.87273280046406,46.89312590298336,72.0,69.70527832422859,0,,,,,,
44.20399966947599,0.8316480677804486,264.0534029478569,47.46644831892985,72.0,69.72065337671192,0,,,,,,
45.203999669475984,0.8455369566693375,263.23407309524976,48.03977073487634,72.0,69.73602842919526,0,,,,,,
46.20399966947598,0.8594258455582263,262.4147432426426,48.613093150822834,72.0,69.7514034816786,0,,,,,,
47.20399966947597,0.8733147344471152,261.59541339003545,49.18641556676933,72.0,69.76677853416193,0,,,,,,
48.20399966947596,0.887203623336004,260.7760835374283,49.75973798271582,72.0,69.78215358664526,0,,,,,,
49.203999669475955,0.9010925122248928,259.95675368482114,50.33306039866231,72.0,69.7975286391286,0,,,,,,
50.20399966947595,0.9149814011137817,259.137423832214,50.906382814608804,72.0,69.81290369161194,0,,,,,,
51.20399966947594,0.9288702900026705,258.31809397960683,51.4797052305553,72.0,69.82827874409527,0,,,,,,
52.203999669475934,0.9427591788915594,257.4987641269997,52.05302764650179,72.0,69.84365379657861,0,,,,,,
53.20399966947593,0.9566480677804482,256.6794342743925,52.62635006244828,72.0,69.85902884906194,0,,,,,,
54.20399966947592,0.970536956669337,255.86010442178537,53.199672478394774,72.0,69.87440390154528,0,,,,,,
55.20399966947591,0.9844258455582259,255.0407745691782,53.77299489434127,72.0,69.88977895402861,0,,,,,,
56.203999669475905,0.9983147344471147,254.22144471657106,54.34631731028776,72.0,69.90515400651195,0,,,,,,
57.2039996694759,1.0122036233360034,253.4021148639639,54.91963972623425,72.0,69.92052905899529,0,,,,,,
58.20399966947589,1.0260925122248923,252.58278501135675,55.492962142180744,72.0,69.93590411147862,0,,,,,,
59.203999669475884,1.0399814011137811,251.7634551587496,56.066284558127236,72.0,69.95127916396196,0,,,,,,
60.20399966947588,1.05387029000267,250.94412530614244,56.63960697407373,72.0,69.96665421644529,0,,,,,,
61.20399966947587,1.0677591788915588,250.12479545353528,57.21292939002022,72.0,69.98202926892863,0,,,,,,
62.20399966947586,1.0816480677804476,249.30546560092813,57.786251805966714,72.0,69.99740432141196,0,,,,,,
62.57682338626823,1.0868261749581194,249.0,58.0,72.0,69.99746332498427,0,,,,,,
63.576823386268245,1.1007150638470085,248.2073760108954,58.609710760849694,72.0,69.99762158630095,0,,,,,,
64.57682338626826,1.1146039527358975,247.41475202179078,59.21942152169939,72.0,69.99777984761764,0,,,,,,
65.57682338626827,1.1284928416247866,246.62212803268616,59.82913228254908,72.0,69.99793810893432,0,,,,,,
66.57682338626829,1.1423817305136756,245.82950404358155,60.438843043398776,72.0,69.998096370251,0,,,,,,
67.5768233862683,1.1562706194025647,245.03688005447694,61.04855380424847,72.0,69.99825463156769,0,,,,,,
68.57682338626832,1.1701595082914538,244.24425606537233,61.658264565098165,72.0,69.99841289288437,0,,,,,,
69.57682338626833,1.1840483971803428,243.4516320762677,62.26797532594786,72.0,69.99857115420106,0,,,,,,
70.57682338626834,1.1979372860692319,242.6590080871631,62.87768608679755,72.0,69.99872941551774,0,,,,,,
71.57682338626836,1.211826174958121,241.8663840980585,63.48739684764725,72.0,69.99888767683443,0,,,,,,
72.57682338626837,1.22571506384701,241.07376010895388,64.09710760849694,72.0,69.99904593815111,0,,,,,,
73.57682338626839,1.239603952735899,240.28113611984926,64.70681836934664,72.0,69.9992041994678,0,,,,,,
74.5768233862684,1.2534928416247881,239.48851213074465,65.31652913019633,72.0,69.99936246078448,0,,,,,,
75.57682338626842,1.2673817305136772,238.69588814164004,65.92623989104602,72.0,69.99952072210117,0,,,,,,
76.57682338626843,1.2812706194025663,237.90326415253543,66.53595065189572,72.0,69.99967898341785,0,,,,,,
77.57682338626844,1.2951595082914553,237.11064016343082,67.14566141274541,72.0,69.99983724473454,0,,,,,,
78.57682338626846,1.3090483971803444,236.3180161743262,67.7553721735951,72.0,69.99999550605122,0,,,,,,
78.97804285312502,1.3146710219626767,236.0,68.0,70.71607385834781,69.99999562625743,0,,,,,,
79.97804285312502,1.329139442608748,235.22604270079668,68.63323779025727,67.5160144202767,69.99999592585958,0,,,,,,
80.97804285312502,1.3443102696021156,234.45208540159337,69.26647558051454,64.3159549822056,69.99999622546173,0,,,,,,
81.97804285312502,1.3602551830480032,233.67812810239005,69.8997133707718,61.11589554413449,69.99999652506388,0,,,,,,
82.97804285312502,1.3770574253767753,232.90417080318673,70.53295116102908,57.91583610606338,69.99999682466603,0,,,,,,
83.97804285312502,1.3948144293896017,232.1302135039834,71.16618895128634,54.71577666799227,69.99999712426818,0,,,,,,
84.97804285312502,1.4136412379622267,231.3562562047801,71.79942674154361,51.515717229921165,69.99999742387033,0,,,,,,
85.97804285312502,1.433675019922696,230.58229890557678,72.43266453180088,48.31565779185006,69.99999772347248,0,,,,,,
86.97804285312502,1.4550811326360116,229.80834160637346,73.06590232205815,45.11559835377895,69.99999802307462,0,,,,,,
87.97804201626148,1.4780613938101086,229.034243546411,73.69896671043898,41.915541593720896,69.99999832267652,0,,,,,,
88.97799572060819,1.5028645482429632,228.24748918522022,74.31615791742753,38.715630304492045,69.9999986222648,0,,,,,,
89.97794942495489,1.5298060955409745,227.44060263869392,74.90678598302512,35.515719015263244,69.99999892185308,0,,,,,,
90.9779031293016,1.5592895452696067,226.6144803644294,75.47019471458749,32.31580772603439,69.99999922144136,0,,,,,,
91.9778568336483,1.591844517265698,225.77004019107588,76.00575816037461,29.115896436805542,69.99999952102964,0,,,,,,
92.97781053799501,1.6281854046043744,224.90822029861928,76.51288130498824,25.91598514757669,69.99999982061792,0,,,,,,
93.97776424234172,1.6668131402129913,224.0299781760566,76.99100073043893,25.857886066538526,69.99999982605738,0,,,,,,
94.97771794668841,1.7055277645956792,223.1362895576177,77.43958524210804,25.799786985500365,69.99999983149684,0,,,,,,
95.97767165103514,1.7443296695268653,222.22814733871644,77.85813645890934,25.7416879044622,69.9999998369363,0,,,,,,
96.97762535538185,1.783219249436679,221.306560472836,78.24618936699451,25.683588823424035,69.99999984237576,0,,,,,,
97.97762535538185,1.8221987080579058,220.36187664504385,78.5741717834561,25.62548705252643,69.99999984781547,0,,,,,,
98.97762535538185,1.8612666467925258,219.4171928172517,78.90215419991767,25.567385281628827,69.99999985325519,0,,,,,,
99.97762535538185,1.9004234682393302,218.47250898945956,79.23013661637926,25.509283510731223,69.9999998586949,0,,,,,,
100.97762535538185,1.9396695777512096,217.5278251616674,79.55811903284084,25.45118173983362,69.99999986413462,0,,,,,,
101.97762535538185,1.9790053834603334,216.58314133387526,79.88610144930242,25.393079968936014,69.99999986957434,0,,,,,,
102.97762535538185,2.0184312963036137,215.6384575060831,80.214083865764,25.33497819803841,69.99999987501405,0,,,,,,
103.97762535538185,2.057947730048466,214.69377367829097,80.54206628222558,25.276876427140806,69.99999988045377,0,,,,,,
104.97762535538185,2.097555101318863,213.74908985049882,80.87004869868716,25.218774656243202,69.99999988589349,0,,,,,,
105.97762535538185,2.1372538296216885,212.80440602270667,81.19803111514874,25.160672885345598,69.9999998913332,0,,,,,,
106.97762535538185,2.1770443373734008,211.85972219491453,81.52601353161032,25.102571114447993,69.99999989677292,0,,,,,,
107.97762535538185,2.2169270499269986,210.91503836712238,81.8539959480719,25.04446934355039,69.99999990221264,0,,,,,,
108.97762535538185,2.2569023955993046,209.97035453933023,82.18197836453348,24.986367572652785,69.99999990765235,0,,,,,,
109.97762535538185,2.2969708056985647,209.02567071153808,82.50996078099506,24.92826580175518,69.99999991309207,0,,,,,,
110.97762535538185,2.3371327145523697,208.08098688374594,82.83794319745664,24.870164030857577,69.99999991853178,0,,,,,,
111.97762535538185,2.3773885595359037,207.1363030559538,83.16592561391822,24.812062259959973,69.9999999239715,0,,,,,,
112.97762535538185,2.417738781100523,206.19161922816164,83.4939080303798,24.75396048906237,69.99999992941122,0,,,,,,
113.97762535538185,2.4581838228026713,205.2469354003695,83.82189044684138,24.695858718164764,69.99999993485093,0,,,,,,
114.97762535538185,2.4987241313331365,204.30225157257735,84.14987286330296,24.63775694726716,69.99999994029065,0,,,,,,
115.97762535538185,2.53936015654665,203.3575677447852,84.47785527976454,24.579655176369556,69.99999994573037,0,,,,,,
116.97762535538185,2.58009235149184,202.41288391699305,84.80583769622612,24.521553405471952,69.99999995117008,0,,,,,,
117.97762535538185,2.6209211724415358,201.4682000892009,85.1338201126877,24.463451634574348,69.9999999566098,0,,,,,,
118.97762535538185,2.6618470789234365,200.52351626140876,85.46180252914928,24.405349863676744,69.99999996204951,0,,,,,,
119.97762535538185,2.7028705337511427,199.5788324336166,85.78978494561086,24.34724809277914,69.99999996748923,0,,,,,,
120.97762535538185,2.74399200305556,198.63414860582446,86.11776736207244,24.289146321881535,69.99999997292895,0,,,,,,
121.97762535538185,2.785211956316677,197.68946477803232,86.44574977853402,24.23104455098393,69.99999997836866,0,,,,,,
122.97762535538185,2.8265308663957276,196.74478095024017,86.7737321949956,24.172942780086327,69.99999998380838,0,,,,,,
123.97762535538185,2.8679492095677372,195.80009712244802,87.10171461145718,24.114841009188723,69.9999999892481,0,,,,,,
124.97762535538185,2.9094674655544637,194.85541329465588,87.42969702791876,24.05673923829112,69.99999999468781,0,,,,,,
125.97762535538185,2.9510849375615202,193.91072946686373,87.75767944438034,24.0,70.00000000012753,0,,,,,,
126.95412826665556,2.9901817994263964,193.0,88.11,25.953007208027767,70.00000000012234,0,,,,,,
127.95412826665557,3.0272834098686605,192.00335927278545,88.19189786845372,27.95300862684624,70.00000000011703,0,,,,,,
128.95412826665557,3.061822133922736,191.0067185455709,88.27379573690745,29.953010045664687,70.00000000011171,0,,,,,,
129.95412826665557,3.0941291688639514,190.01007781835634,88.35569360536117,31.953011464483133,70.0000000001064,0,,,,,,
130.95412826665557,3.124475408373803,189.01343709114178,88.43759147381489,33.95301288330158,70.00000000010108,0,,,,,,
131.95412826665557,3.1530852447573685,188.01679636392723,88.51948934226861,35.95301430212003,70.00000000009577,0,,,,,,
132.95412826665557,3.180146636086006,187.02015563671267,88.60138721072234,37.95301572093848,70.00000000009045,0,,,,,,
133.95412826665557,3.205818588906094,186.02351490949812,88.68328507917606,39.95301713975693,70.00000000008514,0,,,,,,
134.95412826665557,3.230236813801829,185.02687418228356,88.76518294762978,41.95301855857538,70.00000000007982,0,,,,,,
135.95412826665557,3.2535180642713475,184.030233455069,88.8470808160835,43.95301997739383,70.00000000007451,0,,,,,,
136.95412826665557,3.2757635103998113,183.03359272785445,88.92897868453723,45.95302139621228,70.00000000006919,0,,,,,,
137.95412826665557,3.297061394011019,182.0369520006399,89.01087655299095,47.95302281503073,70.00000000006388,0,,,,,,
138.95412826665557,3.3174891414309666,181.04031127342535,89.09277442144467,49.95302423384918,70.00000000005856,0,,,,,,
139.95412826665557,3.337115061601822,180.0436705462108,89.1746722898984,51.95302565266763,70.00000000005325,0,,,,,,
140.95412826665557,3.355999723512594,179.04702981899624,89.25657015835212,53.953027071486076,70.00000000004793,0,,,,,,
141.95412826665557,3.374197082973607,178.05038909178168,89.33846802680584,55.953028490304526,70.00000000004262,0,,,,,,
142.95412826665557,3.391755411548078,177.05374836456713,89.42036589525956,57.953029909122975,70.0000000000373,0,,,,,,
143.95412826665557,3.408718067912103,176.05710763735257,89.50226376371329,59.953031327941424,70.00000000003199,0,,,,,,
144.95412826665557,3.4251241426646635,175.06046691013802,89.58416163216701,61.953032746759874,70.00000000002667,0,,,,,,
145.95412826665557,3.441009000710404,174.06382618292346,89.66605950062073,63.95303416557832,70.00000000002136,0,,,,,,
146.95412826665557,3.45640474013851,173.0671854557089,89.74795736907446,65.95303558439677,70.00000000001604,0,,,,,,
147.95412826665557,3.4713405825641135,172.07054472849435,89.82985523752818,67.95303700321521,70.00000000001073,0,,,,,,
148.95411120251,3.485842962973994,171.0737726599814,89.90992592774911,69.95300429371832,70.00000000000541,0,,,,,,
149.95407718925165,3.49993632612414,170.07545772977352,89.96736524150073,71.95293768597179,70.0000000000001,0,,,,,,
150.95407718925165,3.5137240879188036,169.07545772977352,89.96736524150073,73.10323820285801,70.99995573044254,0,,,,,,
151.95407718925165,3.527296588904289,168.07545772977352,89.96736524150073,74.25353871974423,71.99991146088497,0,,,,,,
152.95407718925165,3.5406604472540124,167.07545772977352,89.96736524150073,75.40383923663045,72.99986719132741,0,,,,,,
153.95407718925165,3.553821980549541,166.07545772977352,89.96736524150073,76.55413975351667,73.99982292176985,0,,,,,,
154.95407718925165,3.566787223712611,165.07545772977352,89.96736524150073,77.70444027040288,74.99977865221229,0,,,,,,
155.95407718925165,3.579561945619613,164.07545772977352,89.96736524150073,78.8547407872891,75.99973438265472,0,,,,,,
156.95407718925165,3.5921516645130236,163.07545772977352,89.96736524150073,80.00504130417532,76.99969011309716,0,,,,,,
157.95407718925165,3.604561662312829,162.07545772977352,89.96736524150073,81.15534182106154,77.9996458435396,0,,,,,,
158.95407718925165,3.616796997920832,161.07545772977352,89.96736524150073,82.30564233794776,78.99960157398203,0,,,,,,
159.95407718925165,3.6288625196017086,160.07545772977352,89.96736524150073,83.45594285483398,79.99955730442447,0,,,,,,
160.95407718925165,3.640805959565101,159.07545772977352,89.96736524150073,84.0,80.99951303486691,0,,,,,,
161.95407718925165,3.652710721469863,158.07545772977352,89.96736524150073,84.0,81.99946876530935,0,,,,,,
162.95407718925165,3.6646154833746247,157.07545772977352,89.96736524150073,84.0,82.99942449575178,0,,,,,,
163.95407718925165,3.6765202452793866,156.07545772977352,89.96736524150073,84.0,83.99938022619422,0,,,,,,
164.95407718925165,3.6884250071841485,155.07545772977352,89.96736524150073,84.0,84.99933595663666,0,,,,,,
165.95407718925165,3.7003297690889103,154.07545772977352,89.96736524150073,84.0,85.9992916870791,0,,,,,,
166.95407718925165,3.712234530993672,153.07545772977352,89.96736524150073,84.0,86.99924741752153,0,,,,,,
167.95407718925165,3.724139292898434,152.07545772977352,89.96736524150073,84.0,87.99920314796397,0,,,,,,
168.95506678301203,3.7360558356812956,151.0748680241402,89.99565672073297,84.0,89.0001484283579,0,,,,,,
169.95496261960054,3.7479593575454446,150.07602258879123,89.9498366344216,84.0,90.00000000000011,0,,,,,,
170.95496261960054,3.7598641194502065,149.08708623592292,89.80149618149136,84.0,92.33187449070373,0,,,,,,
