Distance (in),Time (s),X (in),Y (in),Velocity (in/s),Orientation (deg),Touch,Way X (in),Way Y (in),Way Velocity (in/s),Way Orientation (deg),Way Turn Radius (in),Touch this Point
0.0,0.0,302.0,35.0,0.0,0.0,0,302.0,35.0,0.0,0.0,3.0,0.0
1.0000000000000149,0.16666666666666916,301.0624612299419,35.347880805216356,12.0,1.3045530195613568,0,280.44,43.0,96.0,30.0,3.0,0.0
2.0000000000000298,0.2500000000000037,300.1249224598838,35.69576161043271,12.0,2.6091060391227137,0,261.38,51.07,96.0,70.0,3.0,0.0
3.0000000000000444,0.33333333333333826,299.1873836898257,36.04364241564907,12.0,3.91365905868407,0,214.04,76.0,96.0,70.0,3.0,0.0
4.0000000000000595,0.40520758653859257,298.2498449197676,36.39152322086542,15.826376077794446,5.218212078245427,0,205.0,80.0,24.0,70.0,5.0,0.0
5.000000000000075,0.4613726166452686,297.3123061497095,36.73940402608178,19.78297009724306,6.522765097806785,0,168.64,90.0,24.0,70.0,25.0,0.0
6.00000000000009,0.5073258230961853,296.3747673796514,37.087284831298135,23.73956411669167,7.827318117368142,0,150.0,87.0,120.0,90.0,15.0,0.0
7.000000000000105,0.5462093054777303,295.4372286095933,37.43516563651449,27.696158136140284,9.1318711369295,0,102.0,80.0,120.0,135.0,15.0,0.0
8.000000000000119,0.5799083235417358,294.4996898395352,37.783046441730846,31.652752155588892,10.436424156490855,0,75.0,70.0,30.0,135.0,20.0,0.0
9.000000000000133,0.6096427512452701,293.5621510694771,38.1309272469472,35.6093461750375,11.74097717605221,0,60.0,60.0,24.0,135.0,3.0,0.0
10.000000000000147,0.6362472391905377,292.624612299419,38.47880805216356,39.56594019448611,13.045530195613566,0,,,,,,
11.000000000000162,0.6603179663791131,291.68707352936093,38.826688857379914,43.52253421393472,14.350083215174921,0,,,,,,
12.000000000000176,0.6822955868556385,290.74953475930283,39.17456966259627,47.47912823338333,15.654636234736277,0,,,,,,
13.00000000000019,0.7025149976940419,289.81199598924474,39.522450467812625,51.43572225283194,16.959189254297634,0,,,,,,
14.000000000000204,0.7212366743962673,288.87445721918664,39.87033127302898,55.392316272280546,18.26374227385899,0,,,,,,
15.000000000000218,0.7386672009810977,287.93691844912854,40.21821207824534,59.348910291729155,19.56829529342035,0,,,,,,
16.000000000000234,0.7549731774636811,286.99937967907044,40.56609288346169,63.30550431117777,20.872848312981706,0,,,,,,
17.00000000000025,0.77029091294732,286.06184090901235,40.91397368867805,67.26209833062637,22.177401332543063,0,,,,,,
18.000000000000263,0.7847333492604652,285.12430213895425,41.261854493894404,71.21869235007497,23.48195435210442,0,,,,,,
19.000000000000277,0.7983951133404675,284.18676336889615,41.60973529911076,75.17528636952358,24.786507371665778,0,,,,,,
20.00000000000029,0.8113562741343159,283.24922459883805,41.957616104327116,79.13188038897218,26.091060391227135,0,,,,,,
21.000000000000306,0.8236851831821228,282.31168582877996,42.30549690954347,83.08847440842078,27.395613410788492,0,,,,,,
22.00000000000032,0.8354406545997992,281.37414705872186,42.65337771475983,87.04506842786938,28.70016643034985,0,,,,,,
22.996382324183074,0.846775984780433,280.44,43.0,88.75613159099784,30.688298709668516,0,,,,,,
23.996382324183063,0.8579348596643656,279.5191394738478,43.38989215351774,90.47340730093366,32.68364952136556,0,,,,,,
24.996382324183053,0.8688839192008405,278.59827894769563,43.779784307035484,92.19068301086948,34.6790003330626,0,,,,,,
25.996382324183042,0.8796309079020459,277.67741842154345,44.16967646055323,93.9079587208053,36.67435114475965,0,,,,,,
26.99638232418303,0.8901831492627496,276.75655789539127,44.55956861407097,95.62523443074112,38.66970195645669,0,,,,,,
27.99638232418302,0.900620188027197,275.8356973692391,44.94946076758871,96.0,40.665052768153735,0,,,,,,
28.99638232418301,0.9110368546938635,274.9148368430869,45.33935292110645,96.0,42.66040357985078,0,,,,,,
29.996382324183,0.92145352136053,273.9939763169347,45.729245074624195,96.0,44.65575439154782,0,,,,,,
30.99638232418299,0.9318701880271966,273.07311579078254,46.11913722814194,96.0,46.65110520324487,0,,,,,,
31.996382324182978,0.9422868546938631,272.15225526463036,46.50902938165968,96.0,48.64645601494191,0,,,,,,
32.99638232418297,0.9527035213605296,271.2313947384782,46.89892153517742,96.0,50.641806826638955,0,,,,,,
33.99638232418295,0.9631201880271961,270.310534212326,47.288813688695164,96.0,52.63715763833599,0,,,,,,
34.99638232418294,0.9735368546938626,269.3896736861738,47.678705842212906,96.0,54.63250845003303,0,,,,,,
35.996382324182925,0.9839535213605292,268.4688131600216,48.06859799573065,96.0,56.627859261730066,0,,,,,,
36.99638232418291,0.9943701880271957,267.54795263386944,48.45849014924839,96.0,58.6232100734271,0,,,,,,
37.996382324182896,1.004786854693862,266.62709210771726,48.84838230276613,96.0,60.61856088512414,0,,,,,,
38.99638232418288,1.0152035213605286,265.7062315815651,49.238274456283875,96.0,62.61391169682118,0,,,,,,
39.99638232418287,1.0256201880271951,264.7853710554129,49.62816660980162,96.0,64.60926250851821,0,,,,,,
40.99638232418285,1.0360368546938616,263.8645105292607,50.01805876331936,96.0,66.60461332021525,0,,,,,,
41.99638232418284,1.0464535213605282,262.94365000310853,50.4079509168371,96.0,68.59996413191229,0,,,,,,
42.996382324182825,1.0568701880271947,262.02278947695635,50.797843070354844,96.0,70.59531494360932,0,,,,,,
43.69441363153207,1.0641413474787493,261.38,51.07,96.0,70.5875481309168,0,,,,,,
44.69441363153209,1.0745580141454163,260.49519126925395,51.53595440763621,96.0,70.57642139116925,0,,,,,,
45.694413631532115,1.0849746808120833,259.6103825385079,52.00190881527242,96.0,70.5652946514217,0,,,,,,
46.694413631532136,1.0953913474787502,258.72557380776186,52.46786322290863,96.0,70.55416791167414,0,,,,,,
47.69441363153216,1.1058080141454172,257.8407650770158,52.933817630544844,96.0,70.54304117192659,0,,,,,,
48.69441363153218,1.1162246808120841,256.9559563462698,53.399772038181055,96.0,70.53191443217904,0,,,,,,
49.6944136315322,1.126641347478751,256.0711476155237,53.865726445817266,96.0,70.52078769243148,0,,,,,,
50.69441363153219,1.1370580141454176,255.1863388847777,54.33168085345348,96.0,70.50966095268393,0,,,,,,
51.694413631532186,1.1474746808120841,254.3015301540317,54.79763526108969,96.0,70.49853421293638,0,,,,,,
52.69441363153218,1.1578913474787507,253.41672142328568,55.2635896687259,96.0,70.48740747318882,0,,,,,,
53.69441363153217,1.1683080141454172,252.53191269253966,55.72954407636211,96.0,70.47628073344127,0,,,,,,
54.694413631532164,1.1787246808120837,251.64710396179365,56.19549848399832,96.0,70.46515399369372,0,,,,,,
55.69441363153216,1.1891413474787502,250.76229523104763,56.66145289163453,96.0,70.45402725394617,0,,,,,,
56.69441363153215,1.1995580141454167,249.87748650030161,57.12740729927074,96.0,70.44290051419861,0,,,,,,
57.69441363153214,1.2099746808120833,248.9926777695556,57.593361706906954,96.0,70.43177377445106,0,,,,,,
58.694413631532136,1.2203913474787498,248.10786903880958,58.059316114543165,96.0,70.4206470347035,0,,,,,,
59.69441363153213,1.2308080141454163,247.22306030806357,58.525270522179376,96.0,70.40952029495595,0,,,,,,
60.69441363153212,1.2412246808120828,246.33825157731755,58.99122492981559,96.0,70.3983935552084,0,,,,,,
61.694413631532115,1.2516413474787493,245.45344284657153,59.4571793374518,96.0,70.38726681546085,0,,,,,,
62.69441363153211,1.2620580141454159,244.56863411582552,59.92313374508801,96.0,70.3761400757133,0,,,,,,
63.6944136315321,1.2724746808120824,243.6838253850795,60.38908815272422,96.0,70.36501333596574,0,,,,,,
64.6944136315321,1.2828913474787491,242.79901665433349,60.85504256036043,96.0,70.35388659621819,0,,,,,,
65.6944136315321,1.2933080141454159,241.91420792358747,61.32099696799664,96.0,70.34275985647064,0,,,,,,
66.6944136315321,1.3037246808120826,241.02939919284145,61.78695137563285,96.0,70.33163311672308,0,,,,,,
67.6944136315321,1.3141413474787493,240.14459046209544,62.252905783269064,96.0,70.32050637697553,0,,,,,,
68.6944136315321,1.324558014145416,239.25978173134942,62.718860190905275,96.0,70.30937963722798,0,,,,,,
69.6944136315321,1.3349746808120828,238.3749730006034,63.184814598541486,96.0,70.29825289748042,0,,,,,,
70.6944136315321,1.3453913474787496,237.4901642698574,63.6507690061777,96.0,70.28712615773287,0,,,,,,
71.6944136315321,1.3558080141454163,236.60535553911137,64.11672341381392,96.0,70.27599941798532,0,,,,,,
72.6944136315321,1.366224680812083,235.72054680836536,64.58267782145013,96.0,70.26487267823777,0,,,,,,
73.6944136315321,1.3766413474787498,234.83573807761934,65.04863222908635,96.0,70.25374593849021,0,,,,,,
74.6944136315321,1.3870580141454165,233.95092934687332,65.51458663672257,96.0,70.24261919874266,0,,,,,,
75.6944136315321,1.3974746808120833,233.0661206161273,65.98054104435879,96.0,70.2314924589951,0,,,,,,
76.6944136315321,1.40789134747875,232.1813118853813,66.446495451995,96.0,70.22036571924755,0,,,,,,
77.6944136315321,1.4183080141454167,231.29650315463527,66.91244985963122,96.0,70.2092389795,0,,,,,,
78.6944136315321,1.4287246808120835,230.41169442388926,67.37840426726744,96.0,70.19811223975245,0,,,,,,
79.6944136315321,1.4391413474787502,229.52688569314324,67.84435867490366,96.0,70.1869855000049,0,,,,,,
80.6944136315321,1.449558014145417,228.64207696239723,68.31031308253988,96.0,70.17585876025734,0,,,,,,
81.6944136315321,1.4599746808120837,227.7572682316512,68.7762674901761,96.0,70.16473202050979,0,,,,,,
82.6944136315321,1.4703913474787504,226.8724595009052,69.24222189781231,96.0,70.15360528076224,0,,,,,,
83.6944136315321,1.4808080141454172,225.98765077015918,69.70817630544853,96.0,70.14247854101468,0,,,,,,
84.6944136315321,1.491224680812084,225.10284203941316,70.17413071308475,96.0,70.13135180126713,0,,,,,,
85.6944136315321,1.5016413474787507,224.21803330866715,70.64008512072097,96.0,70.12022506151958,0,,,,,,
86.6944136315321,1.5120580141454174,223.33322457792113,71.10603952835719,96.0,70.10909832177202,0,,,,,,
87.6944136315321,1.5224746808120841,222.4484158471751,71.5719939359934,96.0,70.09797158202447,0,,,,,,
88.6944136315321,1.5328913474787509,221.5636071164291,72.03794834362962,96.0,70.08684484227692,0,,,,,,
89.6944136315321,1.5433080141454176,220.67879838568308,72.50390275126584,96.0,70.07571810252936,0,,,,,,
90.6944136315321,1.5537246808120844,219.79398965493706,72.96985715890206,96.0,70.06459136278181,0,,,,,,
91.6944136315321,1.564141347478751,218.90918092419105,73.43581156653828,96.0,70.05346462303426,0,,,,,,
92.6944136315321,1.5745580141454179,218.02437219344503,73.9017659741745,96.0,70.0423378832867,0,,,,,,
93.6944136315321,1.5849746808120846,217.13956346269902,74.36772038181071,96.0,70.03121114353915,0,,,,,,
94.6944136315321,1.5953913474787513,216.254754731953,74.83367478944693,96.0,70.0200844037916,0,,,,,,
95.6944136315321,1.605808014145418,215.36994600120698,75.29962919708315,96.0,70.00895766404405,0,,,,,,
96.6944136315321,1.6162246808120848,214.48513727046097,75.76558360471937,96.0,69.9978309242965,0,,,,,,
97.19750232741963,1.621567146285976,214.04,76.0,92.33577805832877,69.99794131283518,0,,,,,,
98.19750232741961,1.6328418594376812,213.12552224423615,76.40463617511675,85.0523269062274,69.99816073445923,0,,,,,,
99.1975023274196,1.6451252719621052,212.2110444884723,76.8092723502335,77.76887575412604,69.99838015608329,0,,,,,,
100.19750232741958,1.6586156057682435,211.29656673270847,77.21390852535025,70.48542460202468,69.99859957770734,0,,,,,,
101.19750232741957,1.6735758789813016,210.38208897694463,77.618544700467,63.201973449923315,69.99881899933139,0,,,,,,
102.19750232741956,1.6903656009132457,209.4676112211808,78.02318087558375,55.91852229782195,69.99903842095544,0,,,,,,
103.19750232741954,1.7094945465011364,208.55313346541695,78.4278170507005,48.63507114572059,69.9992578425795,0,,,,,,
104.19750232741953,1.7317200553478065,207.6386557096531,78.83245322581725,41.351619993619224,69.99947726420355,0,,,,,,
105.19750232741951,1.758238294537946,206.72417795388927,79.237089400934,34.06816884151786,69.9996966858276,0,,,,,,
106.1975023274195,1.7911044429495464,205.80970019812543,79.64172557605075,26.784717689416496,69.99991610745165,0,,,,,,
107.08292593999177,1.824201577062737,205.0,80.0,26.719831045477754,69.99991806223002,0,,,,,,
108.08292593999178,1.8616783562675423,204.03580138727315,80.26518113661353,26.646547881331905,69.9999202699624,0,,,,,,
109.0829259399918,1.899258345793017,203.0716027745463,80.53036227322707,26.573264717186056,69.99992247769478,0,,,,,,
110.08292593999181,1.9369421156874924,202.10740416181946,80.7955434098406,26.499981553040207,69.99992468542716,0,,,,,,
111.08292593999182,1.9747302407350906,201.1432055490926,81.06072454645414,26.42669838889436,69.99992689315954,0,,,,,,
112.08292593999184,2.012623300508328,200.17900693636577,81.32590568306767,26.35341522474851,69.99992910089192,0,,,,,,
113.08292593999185,2.0506218794214512,199.21480832363892,81.59108681968121,26.28013206060266,69.9999313086243,0,,,,,,
114.08292593999187,2.0887265667845187,198.25060971091207,81.85626795629474,26.206848896456812,69.99993351635668,0,,,,,,
115.08292593999188,2.126937956858238,197.28641109818523,82.12144909290828,26.133565732310963,69.99993572408906,0,,,,,,
116.0829259399919,2.1652566489095726,196.32221248545838,82.38663022952181,26.060282568165114,69.99993793182144,0,,,,,,
117.08292593999191,2.203683247268136,195.35801387273153,82.65181136613535,25.986999404019265,69.99994013955381,0,,,,,,
118.08292593999192,2.242218361383376,194.3938152600047,82.91699250274888,25.913716239873416,69.9999423472862,0,,,,,,
119.08292593999194,2.280862605882573,193.42961664727784,83.18217363936242,25.840433075727567,69.99994455501857,0,,,,,,
120.08292593999195,2.3196166006296597,192.465418034551,83.44735477597595,25.76714991158172,69.99994676275095,0,,,,,,
121.08292593999197,2.35848097078488,191.50121942182415,83.71253591258949,25.69386674743587,69.99994897048333,0,,,,,,
122.08292593999198,2.397456346865299,190.5370208090973,83.97771704920302,25.62058358329002,69.99995117821571,0,,,,,,
123.082925939992,2.4365433648061794,189.57282219637045,84.24289818581656,25.54730041914417,69.99995338594809,0,,,,,,
124.08292593999201,2.4757426660232396,188.6086235836436,84.50807932243009,25.474017254998323,69.99995559368047,0,,,,,,
125.08292593999202,2.5150548974758093,187.64442497091676,84.77326045904363,25.400734090852474,69.99995780141285,0,,,,,,
126.08292593999204,2.5544807117308976,186.6802263581899,85.03844159565716,25.327450926706625,69.99996000914523,0,,,,,,
127.08292593999205,2.5940207670281867,185.71602774546307,85.3036227322707,25.254167762560776,69.9999622168776,0,,,,,,
128.08292593999207,2.6336757273459743,184.75182913273622,85.56880386888423,25.180884598414927,69.99996442460998,0,,,,,,
129.08292593999207,2.6734462624680724,183.78763052000937,85.83398500549777,25.10760143426908,69.99996663234236,0,,,,,,
130.08292593999207,2.713333048051689,182.82343190728253,86.0991661421113,25.03431827012323,69.99996884007474,0,,,,,,
131.08292593999207,2.7533367656962984,181.85923329455568,86.36434727872484,24.96103510597738,69.99997104780712,0,,,,,,
132.08292593999207,2.7934581030135304,180.89503468182883,86.62952841533837,24.88775194183153,69.9999732555395,0,,,,,,
133.08292593999207,2.8336977536980847,179.93083606910199,86.8947095519519,24.814468777685683,69.99997546327188,0,,,,,,
134.08292593999207,2.8740564175996983,178.96663745637514,87.15989068856544,24.741185613539834,69.99997767100426,0,,,,,,
135.08292593999207,2.914534800796177,178.0024388436483,87.42507182517897,24.667902449393985,69.99997987873664,0,,,,,,
136.08292593999207,2.955133615667515,177.03824023092145,87.69025296179251,24.594619285248136,69.99998208646902,0,,,,,,
137.08292593999207,2.9958535809711204,176.0740416181946,87.95543409840604,24.521336121102287,69.9999842942014,0,,,,,,
138.08292593999207,3.0366954219181648,175.10984300546775,88.22061523501958,24.448052956956438,69.99998650193378,0,,,,,,
139.08292593999207,3.077659870251082,174.1456443927409,88.48579637163311,24.37476979281059,69.99998870966616,0,,,,,,
140.08267866774162,3.118737489158805,173.17896846013818,88.74083197300935,24.301504749557658,69.99999091685261,0,,,,,,
141.0826120024083,3.1599465916829916,172.20302533892723,88.95855128299043,24.228226470858374,69.99999312443781,0,,,,,,
142.08254533707495,3.2012805199186256,171.2191564178725,89.13706912512443,24.154948192159093,69.999995332023,0,,,,,,
143.0824786717416,3.2427400323776956,170.22893567736685,89.2760999089457,24.081669913459812,69.9999975396082,0,,,,,,
144.08241200640828,3.2843258945069853,169.23394725935918,89.37542121485846,24.008391634760528,69.9999997471934,0,,,,,,
145.08234534107493,3.3232932385846397,168.2357829330655,89.43487414996065,27.313214101262037,71.08519055394254,0,,,,,,
146.0822786757416,3.3578146177407544,167.2360395484775,89.45436360223874,30.61803656776364,72.1703813606917,0,,,,,,
147.08221201040826,3.388800656138251,166.2363164817433,89.43385839272662,33.922859034265144,73.25557216744085,0,,,,,,
148.0821453450749,3.4169081962116628,165.2382130765068,89.37339132538526,37.22768150076665,74.34076297418999,0,,,,,,
149.0821453450749,3.4426282265976766,164.25091829345615,89.21449195043076,40.53272429904804,75.42602613036921,0,,,,,,
150.0821453450749,3.466333196983636,163.2636235104055,89.05559257547625,43.83776709732943,76.51128928654843,0,,,,,,
151.0821453450749,3.4883159109441686,162.27632872735484,88.89669320052175,47.142809895610824,77.59655244272766,0,,,,,,
152.0821453450749,3.508809674865135,161.28903394430418,88.73779382556725,50.447852693892216,78.68181559890688,0,,,,,,
153.0821453450749,3.5280033950141374,160.30173916125352,88.57889445061275,53.75289549217361,79.7670787550861,0,,,,,,
154.0821453450749,3.546052171760311,159.31444437820286,88.41999507565825,57.057938290455,80.85234191126533,0,,,,,,
155.0821453450749,3.563084911842522,158.3271495951522,88.26109570070375,60.36298108873639,81.93760506744455,0,,,,,,
156.0821453450749,3.5792099122034475,157.33985481210155,88.10219632574925,63.66802388701778,83.02286822362377,0,,,,,,
157.0821453450749,3.5945190311891997,156.3525600290509,87.94329695079475,66.97306668529917,84.108131379803,0,,,,,,
158.0821453450749,3.6090908553136,155.36526524600023,87.78439757584025,70.27810948358056,85.19339453598222,0,,,,,,
159.0821453450749,3.622993138495718,154.37797046294958,87.62549820088574,73.58315228186196,86.27865769216145,0,,,,,,
160.0821453450749,3.6362847055286656,153.39067567989892,87.46659882593124,76.88819508014335,87.36392084834067,0,,,,,,
161.0821453450749,3.6490169550525637,152.40338089684826,87.30769945097674,80.19323787842474,88.44918400451989,0,,,,,,
162.0821453450749,3.6612350590670757,151.4160861137976,87.14880007602224,83.49828067670613,89.53444716069912,0,,,,,,
163.0821453450749,3.672978929654569,150.42879133074695,86.98990070106774,86.80332347498752,90.61971031687834,0,,,,,,
163.51105559345172,3.677902263961007,150.0,87.0,87.43235571338637,91.00818593448813,0,,,,,,
164.51105559345172,3.6892445501550646,149.0104670189367,86.85569310692827,88.89893815290466,91.9139129929577,0,,,,,,
165.51105559345172,3.7004012513439,148.02093403787342,86.71138621385654,90.36552059242295,92.81964005142729,0,,,,,,
166.51105559345172,3.7113783429228957,147.03140105681013,86.56707932078481,91.83210303194124,93.72536710989687,0,,,,,,
167.51105559345172,3.7221815162695226,146.04186807574683,86.42277242771308,93.29868547145954,94.63109416836645,0,,,,,,
168.51105559345172,3.732816196462238,145.05233509468354,86.27846553464136,94.76526791097783,95.53682122683603,0,,,,,,
169.51105559345172,3.7432875586388237,144.06280211362025,86.13415864156963,96.23185035049612,96.4425482853056,0,,,,,,
170.51105559345172,3.753600543117637,143.07326913255696,85.9898517484979,97.69843279001441,97.34827534377519,0,,,,,,
171.51105559345172,3.7637598693923726,142.08373615149367,85.84554485542617,99.1650152295327,98.25400240224477,0,,,,,,
172.51105559345172,3.773770049099549,141.09420317043038,85.70123796235444,100.63159766905099,99.15972946071435,0,,,,,,
173.51105559345172,3.7836353980479105,140.10467018936708,85.55693106928271,102.09818010856928,100.06545651918393,0,,,,,,
