Distance (in),Time (s),X (in),Y (in),Velocity (in/s),Orientation (deg),Touch,Way X (in),Way Y (in),Way Velocity (in/s),Way Orientation (deg),Way Turn Radius (in),Touch this Point
0.0,0.0,60.0,40.0,0.0,305.0,0,60.0,40.0,0.0,305.0,3.0,0
0.9999999999999988,0.16666666666666646,60.81572384369586,40.5784415362213,12.0,305.0,0,75.47,50.97,60.0,305.0,3.0,0
1.9999999999999976,0.2499999999999997,61.63144768739171,41.1568830724426,12.0,305.0,0,117.52,76.53,60.0,305.0,3.0,0
2.9999999999999964,0.3333333333333329,62.44717153108757,41.735324608663895,12.0,305.0,0,154.62,94.67,42.0,305.0,3.0,0
3.999999999999995,0.4144525961596831,63.262895374783426,42.31376614488519,12.655056398642865,305.0,0,,,,,,
4.9999999999999885,0.4846924165830997,64.07861921847928,42.89220768110649,15.818820498303564,305.0,0,,,,,,
5.999999999999981,0.542161360565895,64.89434306217512,43.47064921732779,18.982584597964262,305.0,0,,,,,,
6.999999999999974,0.5907889285513374,65.71006690587097,44.04909075354909,22.14634869762496,305.0,0,,,,,,
7.999999999999967,0.6329328208053874,66.52579074956682,44.627532289770386,25.310112797285655,305.0,0,,,,,,
8.999999999999961,0.6701186080883728,67.34151459326267,45.205973825991684,28.473876896946354,305.0,0,,,,,,
9.999999999999954,0.7033901019731491,68.15723843695852,45.78441536221298,31.63764099660705,305.0,0,,,,,,
10.999999999999947,0.7334928821546134,68.97296228065437,46.36285689843428,34.80140509626775,305.0,0,,,,,,
11.99999999999994,0.7609780292768199,69.78868612435022,46.94129843465558,37.965169195928446,305.0,0,,,,,,
12.999999999999932,0.78626436462925,70.60440996804607,47.51973997087688,41.12893329558914,305.0,0,,,,,,
13.999999999999925,0.8096776381037223,71.42013381174192,48.098181507098175,44.29269739524984,305.0,0,,,,,,
14.999999999999918,0.8314762030627137,72.23585765543777,48.67662304331947,47.456461494910535,305.0,0,,,,,,
15.999999999999911,0.8518684089920928,73.05158149913362,49.25506457954077,50.62022559457123,305.0,0,,,,,,
16.999999999999904,0.8710247236530246,73.86730534282947,49.83350611576207,53.78398969423193,305.0,0,,,,,,
17.999999999999897,0.8890863917619033,74.68302918652532,50.41194765198337,56.94775379389262,305.0,0,,,,,,
18.96475151432256,0.9058664793714573,75.47,50.97,58.03990738772967,305.0,0,,,,,,
19.964751514322558,0.9229295973958697,76.32452017288885,51.48941820734933,59.17196427245384,305.0,0,,,,,,
20.964751514322554,0.9397120681070811,77.17904034577771,52.00883641469866,60.0,305.0,0,,,,,,
21.96475151432255,0.9563787347737477,78.03356051866656,52.528254622047996,60.0,305.0,0,,,,,,
22.964751514322547,0.9730454014404143,78.88808069155542,53.04767282939733,60.0,305.0,0,,,,,,
23.964751514322543,0.9897120681070809,79.74260086444427,53.56709103674666,60.0,305.0,0,,,,,,
24.96475151432254,1.0063787347737474,80.59712103733312,54.08650924409599,60.0,305.0,0,,,,,,
25.964751514322536,1.023045401440414,81.45164121022198,54.605927451445325,60.0,305.0,0,,,,,,
26.964751514322533,1.0397120681070806,82.30616138311083,55.12534565879466,60.0,305.0,0,,,,,,
27.96475151432253,1.0563787347737472,83.16068155599969,55.64476386614399,60.0,305.0,0,,,,,,
28.964751514322526,1.0730454014404138,84.01520172888854,56.16418207349332,60.0,305.0,0,,,,,,
29.964751514322522,1.0897120681070804,84.8697219017774,56.683600280842654,60.0,305.0,0,,,,,,
30.96475151432252,1.106378734773747,85.72424207466625,57.20301848819199,60.0,305.0,0,,,,,,
31.964751514322515,1.1230454014404136,86.5787622475551,57.72243669554132,60.0,305.0,0,,,,,,
32.96475151432251,1.1397120681070803,87.43328242044396,58.24185490289065,60.0,305.0,0,,,,,,
33.9647515143225,1.1563787347737469,88.28780259333281,58.76127311023998,60.0,305.0,0,,,,,,
34.964751514322494,1.1730454014404135,89.14232276622167,59.280691317589316,60.0,305.0,0,,,,,,
35.96475151432249,1.18971206810708,89.99684293911052,59.80010952493865,60.0,305.0,0,,,,,,
36.96475151432248,1.2063787347737467,90.85136311199938,60.31952773228798,60.0,305.0,0,,,,,,
37.96475151432247,1.2230454014404133,91.70588328488823,60.83894593963731,60.0,305.0,0,,,,,,
38.964751514322465,1.23971206810708,92.56040345777708,61.358364146986645,60.0,305.0,0,,,,,,
39.96475151432246,1.2563787347737465,93.41492363066594,61.87778235433598,60.0,305.0,0,,,,,,
40.96475151432245,1.2730454014404131,94.2694438035548,62.39720056168531,60.0,305.0,0,,,,,,
41.964751514322444,1.2897120681070797,95.12396397644365,62.91661876903464,60.0,305.0,0,,,,,,
42.96475151432244,1.3063787347737463,95.9784841493325,63.436036976383974,60.0,305.0,0,,,,,,
43.96475151432243,1.323045401440413,96.83300432222136,63.95545518373331,60.0,305.0,0,,,,,,
44.96475151432242,1.3397120681070795,97.68752449511021,64.47487339108264,60.0,305.0,0,,,,,,
45.964751514322415,1.3563787347737462,98.54204466799906,64.99429159843197,60.0,305.0,0,,,,,,
46.96475151432241,1.3730454014404128,99.39656484088792,65.5137098057813,60.0,305.0,0,,,,,,
47.9647515143224,1.3897120681070794,100.25108501377677,66.03312801313064,60.0,305.0,0,,,,,,
48.964751514322394,1.406378734773746,101.10560518666563,66.55254622047997,60.0,305.0,0,,,,,,
49.96475151432239,1.4230454014404126,101.96012535955448,67.0719644278293,60.0,305.0,0,,,,,,
50.96475151432238,1.4397120681070792,102.81464553244334,67.59138263517863,60.0,305.0,0,,,,,,
51.96475151432237,1.4563787347737458,103.66916570533219,68.11080084252796,60.0,305.0,0,,,,,,
52.964751514322366,1.4730454014404124,104.52368587822104,68.6302190498773,60.0,305.0,0,,,,,,
53.96475151432236,1.489712068107079,105.3782060511099,69.14963725722663,60.0,305.0,0,,,,,,
54.96475151432235,1.5063787347737456,106.23272622399875,69.66905546457596,60.0,305.0,0,,,,,,
55.964751514322344,1.5230454014404122,107.08724639688761,70.1884736719253,60.0,305.0,0,,,,,,
56.96475151432234,1.5397120681070788,107.94176656977646,70.70789187927463,60.0,305.0,0,,,,,,
57.96475151432233,1.5563787347737454,108.79628674266532,71.22731008662396,60.0,305.0,0,,,,,,
58.96475151432232,1.573045401440412,109.65080691555417,71.74672829397329,60.0,305.0,0,,,,,,
59.964751514322316,1.5897120681070787,110.50532708844302,72.26614650132262,60.0,305.0,0,,,,,,
60.96475151432231,1.6063787347737453,111.35984726133188,72.78556470867196,60.0,305.0,0,,,,,,
61.9647515143223,1.6230454014404119,112.21436743422073,73.30498291602129,60.0,305.0,0,,,,,,
62.964751514322295,1.6397120681070785,113.06888760710959,73.82440112337062,60.0,305.0,0,,,,,,
63.96475151432229,1.656378734773745,113.92340777999844,74.34381933071995,60.0,305.0,0,,,,,,
64.96475151432229,1.6730454014404117,114.7779279528873,74.86323753806928,60.0,305.0,0,,,,,,
65.96475151432229,1.6897120681070783,115.63244812577615,75.38265574541862,60.0,305.0,0,,,,,,
66.96475151432229,1.706378734773745,116.486968298665,75.90207395276795,60.0,305.0,0,,,,,,
67.96475151432229,1.7230454014404115,117.34148847155386,76.42149216011728,60.0,305.0,0,,,,,,
68.17365416414796,1.7265297561132935,117.52,76.53,59.90894695738976,305.0,0,,,,,,
69.17365416414796,1.743282696176815,118.41836312742345,76.96925356149491,59.473083445432295,305.0,0,,,,,,
70.17365416414796,1.7601588659525813,119.3167262548469,77.40850712298982,59.03721993347483,305.0,0,,,,,,
71.17365416414796,1.7771600917576666,120.21508938227035,77.84776068448473,58.601356421517366,305.0,0,,,,,,
72.17365416414796,1.794288240812449,121.1134525096938,78.28701424597963,58.1654929095599,305.0,0,,,,,,
73.17365416414796,1.811545222471257,122.01181563711725,78.72626780747454,57.72962939760244,305.0,0,,,,,,
74.17365416414796,1.828932989499651,122.9101787645407,79.16552136896945,57.29376588564497,305.0,0,,,,,,
75.17365416414796,1.8464535394004755,123.80854189196415,79.60477493046436,56.85790237368751,305.0,0,,,,,,
76.17365416414796,1.8641089157909312,124.7069050193876,80.04402849195927,56.422038861730044,305.0,0,,,,,,
77.17365416414796,1.8819012098330452,125.60526814681106,80.48328205345418,55.98617534977258,305.0,0,,,,,,
78.17365416414796,1.8998325617200407,126.50363127423451,80.92253561494908,55.550311837815116,305.0,0,,,,,,
79.17365416414796,1.9179051622212482,127.40199440165796,81.36178917644399,55.11444832585765,305.0,0,,,,,,
80.17365416414795,1.936121254288348,128.3003575290814,81.8010427379389,54.678584813900194,305.0,0,,,,,,
81.17365416414793,1.9544831347258895,129.19872065650483,82.24029629943381,54.24272130194274,305.0,0,,,,,,
82.17365416414792,1.9729931559291964,130.09708378392827,82.67954986092872,53.80685778998528,305.0,0,,,,,,
83.1736541641479,1.9916537276929487,130.9954469113517,83.11880342242362,53.37099427802782,305.0,0,,,,,,
84.17365416414789,2.0104673190939177,131.89381003877514,83.55805698391853,52.935130766070365,305.0,0,,,,,,
85.17365416414788,2.0294364604515334,132.79217316619858,83.99731054541344,52.49926725411291,305.0,0,,,,,,
86.17365416414786,2.0485637453701764,133.69053629362202,84.43656410690835,52.06340374215545,305.0,0,,,,,,
87.17365416414785,2.067851832867318,134.58889942104545,84.87581766840326,51.627540230197994,305.0,0,,,,,,
88.17365416414783,2.0873034495918734,135.4872625484689,85.31507122989817,51.19167671824054,305.0,0,,,,,,
89.17365416414782,2.1069213921374,136.38562567589233,85.75432479139307,50.75581320628308,305.0,0,,,,,,
90.1736541641478,2.126708529455044,137.28398880331576,86.19357835288798,50.31994969432562,305.0,0,,,,,,
91.17365416414779,2.146667805371446,138.1823519307392,86.63283191438289,49.884086182368165,305.0,0,,,,,,
92.17365416414778,2.16680224121713,139.08071505816264,87.0720854758778,49.44822267041071,305.0,0,,,,,,
93.17365416414776,2.1871149385712467,139.97907818558608,87.51133903737271,49.01235915845325,305.0,0,,,,,,
94.17365416414775,2.207609082128904,140.8774413130095,87.95059259886762,48.57649564649579,305.0,0,,,,,,
95.17365416414773,2.228287942697716,141.77580444043295,88.38984616036252,48.140632134538336,305.0,0,,,,,,
96.17365416414772,2.2491548803306247,142.6741675678564,88.82909972185743,47.70476862258088,305.0,0,,,,,,
97.1736541641477,2.270213347602495,143.57253069527982,89.26835328335234,47.26890511062342,305.0,0,,,,,,
98.17365416414769,2.291466893038474,144.47089382270326,89.70760684484725,46.833041598665965,305.0,0,,,,,,
99.17365416414768,2.312919164702634,145.3692569501267,90.14686040634216,46.39717808670851,305.0,0,,,,,,
100.17365416414766,2.3345739139559702,146.26762007755013,90.58611396783706,45.96131457475105,305.0,0,,,,,,
101.17365416414765,2.3564349993934384,147.16598320497357,91.02536752933197,45.52545106279359,305.0,0,,,,,,
102.17365416414764,2.3785063909703674,148.064346332397,91.46462109082688,45.089587550836136,305.0,0,,,,,,
103.17365416414762,2.400792174329282,148.96270945982045,91.90387465232179,44.65372403887868,305.0,0,,,,,,
104.1736541641476,2.423296555338931,149.86107258724388,92.3431282138167,44.21786052692122,305.0,0,,,,,,
105.17365416414759,2.4460238648581316,150.75943571466732,92.7823817753116,43.781997014963764,305.0,0,,,,,,
106.17365416414758,2.4689785637379322,151.65779884209076,93.22163533680651,43.34613350300631,305.0,0,,,,,,
107.17365416414756,2.492165248076537,152.5561619695142,93.66088889830142,42.91026999104885,305.0,0,,,,,,
108.17365416414755,2.515588654742479,153.45452509693763,94.10014245979633,42.47440647909139,305.0,0,,,,,,
109.17365416414754,2.5392536671826442,154.35288822436107,94.53939602129124,42.038542967133935,305.0,0,,,,,,
109.47098579707539,2.546329744954343,154.62,94.67,42.0,305.0,0,,,,,,
