Distance (in),Time (s),X (in),Y (in),Velocity (in/s),Orientation (deg),Touch,Rotational Velocity (deg/s),Way X (in),Way Y (in),Way Velocity (in/s),Way Orientation (deg),Way Turn Radius (in),Touch this Point
0.0,0.0,302.0,72.0,36.0,0.0,0,0.0,302.0,72.0,36.0,0.0,3.0,0.0
1.0,0.02713178294573643,302.0,71.0,37.714285714285715,0.0,0,0.0,302.0,58.0,60.0,0.0,3.0,0.0
2.0,0.05305770887166236,302.0,70.0,39.42857142857143,0.0,0,0.0,302.0,42.0,48.0,0.0,3.0,0.0
3.0,0.07788040390712335,302.0,69.0,41.142857142857146,0.0,0,0.0,302.0,25.0,12.0,0.0,3.0,0.0
4.0,0.10168992771664716,302.0,68.0,42.85714285714286,0.0,0,-0.0,,,,,,
5.0,0.1245657447101112,302.0,67.0,44.57142857142858,0.0,0,-0.0,,,,,,
6.0,0.1465783233264634,302.0,66.0,46.28571428571429,0.0,0,-0.0,,,,,,
7.0,0.1677904445385846,302.0,65.0,48.00000000000001,0.0,0,-0.0,,,,,,
8.0,0.18825828079589454,302.0,64.0,49.71428571428572,0.0,0,0.0,,,,,,
9.0,0.20803229209532956,302.0,63.0,51.42857142857144,0.0,0,0.0,,,,,,
10.0,0.22715797515543884,302.0,62.0,53.14285714285715,0.0,0,0.0,,,,,,
11.0,0.24567649367395736,302.0,61.0,54.85714285714287,0.0,0,0.0,,,,,,
12.0,0.2636252116226753,302.0,60.0,56.571428571428584,0.0,0,0.0,,,,,,
13.0,0.2810381469460584,302.0,59.0,58.2857142857143,0.0,0,0.0,,,,,,
14.0,0.29829014941063015,302.0,58.0,57.64285714285715,0.0,0,0.0,,,,,,
15.0,0.3157356322766738,302.0,57.0,57.00000000000001,0.0,0,0.0,,,,,,
16.0,0.3333789845135988,302.0,56.0,56.35714285714286,0.0,0,0.0,,,,,,
17.0,0.3512247461452113,302.0,55.0,55.714285714285715,0.0,0,0.0,,,,,,
18.0,0.3692776152619102,302.0,54.0,55.07142857142857,0.0,0,0.0,,,,,,
19.0,0.3875424554445586,302.0,53.0,54.42857142857142,0.0,0,-0.0,,,,,,
20.0,0.4060243036293771,302.0,52.0,53.78571428571428,0.0,0,-0.0,,,,,,
21.0,0.42472837844567635,302.0,51.0,53.14285714285713,0.0,0,-0.0,,,,,,
22.0,0.44366008906095694,302.0,50.0,52.499999999999986,0.0,0,-0.0,,,,,,
23.0,0.46282504457088164,302.0,49.0,51.85714285714284,0.0,0,-0.0,,,,,,
24.0,0.48222906397490106,302.0,48.0,51.214285714285694,0.0,0,0.0,,,,,,
25.0,0.5018781867819186,302.0,47.0,50.57142857142855,0.0,0,0.0,,,,,,
26.0,0.5217786842943565,302.0,46.0,49.9285714285714,0.0,0,0.0,,,,,,
27.0,0.5419370716233701,302.0,45.0,49.285714285714256,0.0,0,0.0,,,,,,
28.0,0.5623601204928085,302.0,44.0,48.64285714285711,0.0,0,0.0,,,,,,
29.0,0.583054872894878,302.0,43.0,48.0,0.0,0,0.0,,,,,,
30.0,0.6043581310402414,302.0,42.0,45.88235294117647,0.0,0,0.0,,,,,,
31.0,0.6266678423263307,302.0,41.0,43.76470588235294,0.0,0,0.0,,,,,,
32.0,0.6500838202877631,302.0,40.0,41.64705882352941,0.0,0,0.0,,,,,,
33.0,0.6747215014471835,302.0,39.0,39.529411764705884,0.0,0,0.0,,,,,,
34.0,0.7007153852392324,302.0,38.0,37.411764705882355,0.0,0,0.0,,,,,,
35.0,0.7282234758541191,302.0,37.0,35.294117647058826,0.0,0,0.0,,,,,,
36.0,0.7574330978472462,302.0,36.0,33.1764705882353,0.0,0,0.0,,,,,,
37.0,0.7885686289827774,302.0,35.0,31.058823529411768,0.0,0,0.0,,,,,,
38.0,0.8219019623161107,302.0,34.0,28.94117647058824,0.0,0,-0.0,,,,,,
39.0,0.8577669412190643,302.0,33.0,26.82352941176471,0.0,0,-0.0,,,,,,
40.0,0.8965797266071921,302.0,32.0,24.70588235294118,0.0,0,-0.0,,,,,,
41.0,0.9388682838211224,302.0,31.0,22.588235294117652,0.0,0,-0.0,,,,,,
42.0,0.9853163712528163,302.0,30.0,20.470588235294123,0.0,0,-0.0,,,,,,
43.0,1.0368315227679679,302.0,29.0,18.352941176470594,0.0,0,0.0,,,,,,
44.0,1.0946546520196685,302.0,28.0,16.235294117647065,0.0,0,0.0,,,,,,
45.0,1.1605461248878854,302.0,27.0,14.117647058823536,0.0,0,0.0,,,,,,
46.0,1.237122701464462,302.0,26.0,12.000000000000007,0.0,0,0.0,,,,,,
47.0,1.3204560347977952,302.0,25.0,12.0,0.0,0,0.0,,,,,,
