Distance (in),Time (s),X (in),Y (in),Velocity (in/s),Orientation (deg),Touch,Way X (in),Way Y (in),Way Velocity (in/s),Way Orientation (deg),Way Turn Radius (in),Touch this Point
0.0,0.0,66.0,58.0,0.0,305.0,0,66.0,58.0,0.0,305.0,3.0,0
1.0000000000000044,0.1666666666666674,66.88546523707438,58.46470562072436,12.0,305.0,0,75.47,62.97,60.0,305.0,3.0,0.0
2.000000000000009,0.2500000000000011,67.77093047414877,58.92941124144872,12.0,305.0,0,117.52,76.53,60.0,305.0,3.0,0.0
3.0000000000000133,0.330935335927695,68.65639571122315,59.39411686217308,12.711085424872659,305.0,0,154.62,94.67,42.0,305.0,3.0,0.0
4.000000000000018,0.3983680396262816,69.54186094829754,59.85882248289744,16.94811389983021,305.0,0,,,,,,
5.000000000000022,0.4508156980585156,70.42732618537192,60.3235281036218,21.185142374787766,305.0,0,,,,,,
6.000000000000027,0.49372741859397984,71.31279142244631,60.788233724346156,25.42217084974532,305.0,0,,,,,,
7.000000000000031,0.5300373359701418,72.1982566595207,61.252939345070516,29.659199324702875,305.0,0,,,,,,
8.000000000000036,0.5615059310294822,73.08372189659508,61.717644965794875,33.89622779966043,305.0,0,,,,,,
9.000000000000039,0.5892723384347825,73.96918713366946,62.182350586519235,38.13325627461798,305.0,0,,,,,,
10.000000000000043,0.6141159661132092,74.85465237074385,62.647056207243594,42.370284749575525,305.0,0,,,,,,
10.694942730094441,0.6303399138216748,75.47,62.97,43.298473875895,305.0,0,,,,,,
11.694942730094446,0.6530846116407354,76.42173847837846,63.27691019659481,44.63410785855915,305.0,0,,,,,,
12.694942730094452,0.675158728873359,77.37347695675692,63.583820393189626,45.969741841223296,305.0,0,,,,,,
13.694942730094457,0.6966006744861288,78.32521543513538,63.89073058978444,47.305375823887445,305.0,0,,,,,,
14.694942730094462,0.7174456493839171,79.27695391351384,64.19764078637925,48.641009806551594,305.0,0,,,,,,
15.694942730094468,0.7377259939984624,80.2286923918923,64.50455098297407,49.97664378921574,305.0,0,,,,,,
16.694942730094475,0.7574714900426043,81.18043087027075,64.81146117956888,51.31227777187989,305.0,0,,,,,,
17.694942730094482,0.7767096234964844,82.13216934864921,65.1183713761637,52.64791175454404,305.0,0,,,,,,
18.69494273009449,0.7954658146528766,83.08390782702767,65.42528157275851,53.98354573720819,305.0,0,,,,,,
19.694942730094496,0.8137636200519318,84.03564630540613,65.73219176935332,55.31917971987234,305.0,0,,,,,,
20.694942730094503,0.8316249103289987,84.98738478378459,66.03910196594813,56.65481370253649,305.0,0,,,,,,
21.69494273009451,0.8490700273429143,85.93912326216305,66.34601216254295,57.990447685200635,305.0,0,,,,,,
22.694942730094517,0.866117923415436,86.89086174054151,66.65292235913776,59.326081667864784,305.0,0,,,,,,
23.694942730094525,0.8828787184741966,87.84260021891997,66.95983255573258,60.0,305.0,0,,,,,,
24.69494273009453,0.8995453851408635,88.79433869729843,67.26674275232739,60.0,305.0,0,,,,,,
25.69494273009454,0.9162120518075303,89.74607717567689,67.5736529489222,60.0,305.0,0,,,,,,
26.694942730094546,0.9328787184741971,90.69781565405535,67.88056314551702,60.0,305.0,0,,,,,,
27.694942730094553,0.949545385140864,91.6495541324338,68.18747334211183,60.0,305.0,0,,,,,,
28.69494273009456,0.9662120518075308,92.60129261081227,68.49438353870664,60.0,305.0,0,,,,,,
29.694942730094567,0.9828787184741976,93.55303108919072,68.80129373530146,60.0,305.0,0,,,,,,
30.694942730094574,0.9995453851408644,94.50476956756918,69.10820393189627,60.0,305.0,0,,,,,,
31.69494273009458,1.0162120518075313,95.45650804594764,69.41511412849108,60.0,305.0,0,,,,,,
32.69494273009459,1.032878718474198,96.4082465243261,69.7220243250859,60.0,305.0,0,,,,,,
33.694942730094596,1.049545385140865,97.35998500270456,70.02893452168071,60.0,305.0,0,,,,,,
34.6949427300946,1.0662120518075318,98.31172348108302,70.33584471827552,60.0,305.0,0,,,,,,
35.69494273009461,1.0828787184741986,99.26346195946148,70.64275491487034,60.0,305.0,0,,,,,,
36.69494273009462,1.0995453851408654,100.21520043783994,70.94966511146515,60.0,305.0,0,,,,,,
37.694942730094624,1.1162120518075322,101.1669389162184,71.25657530805996,60.0,305.0,0,,,,,,
38.69494273009463,1.132878718474199,102.11867739459686,71.56348550465478,60.0,305.0,0,,,,,,
39.69494273009464,1.149545385140866,103.07041587297532,71.87039570124959,60.0,305.0,0,,,,,,
40.694942730094645,1.1662120518075327,104.02215435135378,72.1773058978444,60.0,305.0,0,,,,,,
41.69494273009465,1.1828787184741996,104.97389282973224,72.48421609443922,60.0,305.0,0,,,,,,
42.69494273009466,1.1995453851408664,105.9256313081107,72.79112629103403,60.0,305.0,0,,,,,,
43.69494273009467,1.2162120518075332,106.87736978648915,73.09803648762885,60.0,305.0,0,,,,,,
44.694942730094674,1.2328787184742,107.82910826486761,73.40494668422366,60.0,305.0,0,,,,,,
45.69494273009468,1.2495453851408669,108.78084674324607,73.71185688081847,60.0,305.0,0,,,,,,
46.69494273009469,1.2662120518075337,109.73258522162453,74.01876707741329,60.0,305.0,0,,,,,,
47.694942730094695,1.2828787184742005,110.68432370000299,74.3256772740081,60.0,305.0,0,,,,,,
48.6949427300947,1.2995453851408674,111.63606217838145,74.63258747060291,60.0,305.0,0,,,,,,
49.69494273009471,1.3162120518075342,112.58780065675991,74.93949766719773,60.0,305.0,0,,,,,,
50.694942730094716,1.332878718474201,113.53953913513837,75.24640786379254,60.0,305.0,0,,,,,,
51.69494273009472,1.3495453851408679,114.49127761351683,75.55331806038735,60.0,305.0,0,,,,,,
52.69494273009473,1.3662120518075347,115.44301609189529,75.86022825698217,60.0,305.0,0,,,,,,
53.69494273009474,1.3828787184742015,116.39475457027375,76.16713845357698,60.0,305.0,0,,,,,,
54.694942730094745,1.3995453851408683,117.3464930486522,76.4740486501718,60.0,305.0,0,,,,,,
54.877248011734096,1.4025858197815773,117.52,76.53,59.92053977969628,305.0,0,,,,,,
55.877248011734096,1.4193355068237705,118.41836312742345,76.96925356149491,59.48467626773881,305.0,0,,,,,,
56.877248011734096,1.4362083755503727,119.3167262548469,77.40850712298982,59.04881275578135,305.0,0,,,,,,
57.877248011734096,1.453206251206924,120.21508938227035,77.84776068448473,58.612949243823884,305.0,0,,,,,,
58.877248011734096,1.4703309999101528,121.1134525096938,78.28701424597963,58.17708573186642,305.0,0,,,,,,
59.877248011734096,1.4875845298774126,122.01181563711725,78.72626780747454,57.741222219908956,305.0,0,,,,,,
60.877248011734096,1.5049687927026947,122.9101787645407,79.16552136896945,57.30535870795149,305.0,0,,,,,,
61.877248011734096,1.522485784681354,123.80854189196415,79.60477493046436,56.86949519599403,305.0,0,,,,,,
62.877248011734096,1.5401375481857953,124.7069050193876,80.04402849195927,56.43363168403656,305.0,0,,,,,,
63.877248011734096,1.5579261730944907,125.60526814681106,80.48328205345418,55.9977681720791,305.0,0,,,,,,
64.8772480117341,1.575853798276829,126.50363127423451,80.92253561494908,55.561904660121634,305.0,0,,,,,,
65.8772480117341,1.5939226131364348,127.40199440165796,81.36178917644399,55.12604114816417,305.0,0,,,,,,
66.87724801173408,1.6121348592157418,128.3003575290814,81.8010427379389,54.69017763620671,305.0,0,,,,,,
67.87724801173407,1.6304928318647631,129.19872065650483,82.24029629943381,54.254314124249255,305.0,0,,,,,,
68.87724801173405,1.6489988819771624,130.09708378392827,82.67954986092872,53.8184506122918,305.0,0,,,,,,
69.87724801173404,1.6676554177969123,130.9954469113517,83.11880342242362,53.38258710033434,305.0,0,,,,,,
70.87724801173403,1.6864649067990103,131.89381003877514,83.55805698391853,52.946723588376884,305.0,0,,,,,,
71.87724801173401,1.7054298776479262,132.79217316619858,83.99731054541344,52.510860076419426,305.0,0,,,,,,
72.877248011734,1.7245529222376685,133.69053629362202,84.43656410690835,52.07499656446197,305.0,0,,,,,,
73.87724801173398,1.7438366978175852,134.58889942104545,84.87581766840326,51.63913305250451,305.0,0,,,,,,
74.87724801173397,1.7632839292082596,135.4872625484689,85.31507122989817,51.203269540547055,305.0,0,,,,,,
75.87724801173395,1.7828974111121227,136.38562567589233,85.75432479139307,50.7674060285896,305.0,0,,,,,,
76.87724801173394,1.802680010523682,137.28398880331576,86.19357835288798,50.33154251663214,305.0,0,,,,,,
77.87724801173393,1.8226346692445645,138.1823519307392,86.63283191438289,49.89567900467468,305.0,0,,,,,,
78.87724801173391,1.8427644065088933,139.08071505816264,87.0720854758778,49.459815492717226,305.0,0,,,,,,
79.8772480117339,1.8630723217248562,139.97907818558608,87.51133903737271,49.02395198075977,305.0,0,,,,,,
80.87724801173388,1.883561597338692,140.8774413130095,87.95059259886762,48.58808846880231,305.0,0,,,,,,
81.87724801173387,1.904235501827715,141.77580444043295,88.38984616036252,48.152224956844854,305.0,0,,,,,,
82.87724801173385,1.9250973928294148,142.6741675678564,88.82909972185743,47.7163614448874,305.0,0,,,,,,
83.87724801173384,1.9461507204141264,143.57253069527982,89.26835328335234,47.28049793292994,305.0,0,,,,,,
84.87724801173383,1.9673990305092468,144.47089382270326,89.70760684484725,46.84463442097248,305.0,0,,,,,,
85.87724801173381,1.9888459684834983,145.3692569501267,90.14686040634216,46.408770909015026,305.0,0,,,,,,
86.8772480117338,2.0104952829002998,146.26762007755013,90.58611396783706,45.97290739705757,305.0,0,,,,,,
87.87724801173378,2.0323508294499124,147.16598320497357,91.02536752933197,45.53704388510011,305.0,0,,,,,,
88.87724801173377,2.0544165750706744,148.064346332397,91.46462109082688,45.101180373142654,305.0,0,,,,,,
89.87724801173376,2.076696602270345,148.96270945982045,91.90387465232179,44.6653168611852,305.0,0,,,,,,
90.87724801173374,2.0991951136593276,149.86107258724388,92.3431282138167,44.22945334922774,305.0,0,,,,,,
91.87724801173373,2.121916436708367,150.75943571466732,92.7823817753116,43.79358983727028,305.0,0,,,,,,
92.87724801173371,2.1448650287441877,151.65779884209076,93.22163533680651,43.357726325312825,305.0,0,,,,,,
93.8772480117337,2.1680454821975017,152.5561619695142,93.66088889830142,42.92186281335537,305.0,0,,,,,,
94.87724801173368,2.191462530118837,153.45452509693763,94.10014245979633,42.48599930139791,305.0,0,,,,,,
95.87724801173367,2.2151210519787594,154.35288822436107,94.53939602129124,42.05013578944045,305.0,0,,,,,,
96.17457964466152,2.222196153764977,154.62,94.67,42.0,305.0,0,,,,,,
