Distance (in),Time (s),X (in),Y (in),Velocity (in/s),Orientation (deg),Touch,Way X (in),Way Y (in),Way Velocity (in/s),Way Orientation (deg),Way Turn Radius (in),Touch this Point
0.0,0.0,205.0,83.12,12.0,0.0,0,205.0,83.12,12.0,0.0,5.0,0.0
0.9999999999999873,0.07697306684040775,204.00976925741026,82.98056156760012,13.983114381380677,359.727659311719,0,168.64,78.0,96.0,350.0,3.0,0
1.9999999999999747,0.14375249470212254,203.0195385148205,82.84112313520023,15.966228762761354,359.45531862343796,0,102.0,60.0,108.0,315.0,7.0,0
2.999999999999962,0.20272245709844827,202.02930777223077,82.70168470280035,17.94934314414203,359.182977935157,0,72.0,49.0,84.0,315.0,20.0,0
3.9999999999999494,0.2555182578429876,201.03907702964102,82.56224627040046,19.932457525522707,358.910637246876,0,58.0,35.0,42.0,315.0,3.0,0.0
4.999999999999937,0.3033102334061253,200.04884628705128,82.42280783800058,21.915571906903384,358.63829655859496,0,,,,,,
5.9999999999999245,0.3469647653965628,199.05861554446153,82.2833694056007,23.89868628828406,358.36595587031394,0,,,,,,
6.999999999999912,0.387141150205523,198.0683848018718,82.14393097320081,25.881800669664738,358.0936151820329,0,,,,,,
7.9999999999999,0.4243527262652173,197.07815405928204,82.00449254080092,27.864915051045415,357.82127449375196,0,,,,,,
8.999999999999886,0.45900699694746877,196.0879233166923,81.86505410840104,29.84802943242609,357.54893380547094,0,,,,,,
9.999999999999874,0.4914328531115205,195.09769257410255,81.72561567600115,31.83114381380677,357.2765931171899,0,,,,,,
10.999999999999861,0.5218995718578837,194.1074618315128,81.58617724360127,33.81425819518745,357.0042524289089,0,,,,,,
11.999999999999849,0.5506304028673974,193.11723108892306,81.44673881120139,35.79737257656813,356.7319117406279,0,,,,,,
12.999999999999837,0.5778124928691014,192.12700034633332,81.3073003788015,37.78048695794881,356.4595710523469,0,,,,,,
13.999999999999824,0.6036042720223057,191.13676960374357,81.16786194640162,39.76360133932949,356.1872303640659,0,,,,,,
14.999999999999812,0.6281410432205676,190.14653886115383,81.02842351400173,41.74671572071017,355.9148896757849,0,,,,,,
15.9999999999998,0.6515392746388811,189.15630811856408,80.88898508160185,43.72983010209085,355.64254898750386,0,,,,,,
16.999999999999787,0.6738999405424946,188.16607737597434,80.74954664920196,45.71294448347153,355.37020829922284,0,,,,,,
17.999999999999773,0.695311152827267,187.1758466333846,80.61010821680208,47.696058864852205,355.0978676109419,0,,,,,,
18.99999999999976,0.7158502566285126,186.18561589079485,80.47066978440219,49.67917324623288,354.82552692266086,0,,,,,,
19.999999999999744,0.7355855158477344,185.1953851482051,80.3312313520023,51.66228762761355,354.55318623437984,0,,,,,,
20.99999999999973,0.754577481267368,184.20515440561536,80.19179291960242,53.645402008994225,354.2808455460988,0,,,,,,
21.999999999999716,0.7728801103786485,183.21492366302562,80.05235448720254,55.6285163903749,354.0085048578178,0,,,,,,
22.9999999999997,0.7905416910999847,182.22469292043587,79.91291605480265,57.61163077175557,353.73616416953683,0,,,,,,
23.999999999999687,0.8076056092035665,181.23446217784613,79.77347762240277,59.594745153136245,353.4638234812558,0,,,,,,
24.999999999999673,0.8241109901447072,180.24423143525638,79.63403919000288,61.57785953451692,353.1914827929748,0,,,,,,
25.99999999999966,0.8400932391784771,179.25400069266664,79.494600757603,63.56097391589759,352.9191421046938,0,,,,,,
26.999999999999645,0.8555844985118842,178.2637699500769,79.35516232520311,65.54408829727826,352.64680141641276,0,,,,,,
27.99999999999963,0.8706140363282839,177.27353920748715,79.21572389280323,67.52720267865894,352.3744607281318,0,,,,,,
28.999999999999616,0.8852085795148036,176.2833084648974,79.07628546040334,69.51031706003961,352.1021200398508,0,,,,,,
29.999999999999602,0.8993925995940943,175.29307772230766,78.93684702800346,71.49343144142028,351.82977935156975,0,,,,,,
30.999999999999588,0.9131885595420964,174.3028469797179,78.79740859560357,73.47654582280096,351.55743866328874,0,,,,,,
31.999999999999574,0.9266171277415417,173.31261623712817,78.65797016320369,75.45966020418163,351.2850979750077,0,,,,,,
32.99999999999956,0.9396973641861096,172.32238549453842,78.5185317308038,77.4427745855623,351.01275728672675,0,,,,,,
33.999999999999545,0.9524468831448821,171.33215475194868,78.37909329840392,79.42588896694298,350.74041659844573,0,,,,,,
34.99999999999953,0.964881995770068,170.34192400935893,78.23965486600403,81.40900334832365,350.4680759101647,0,,,,,,
35.99999999999952,0.9770178355441981,169.3516932667692,78.10021643360415,83.39211772970432,350.1957352218837,0,,,,,,
36.718714574450985,0.9856048309349751,168.64,78.0,84.00393682586567,349.8292807107978,0,,,,,,
37.71871457445099,0.9974490223374104,167.6745971712054,77.73923693099786,84.85520535152244,349.3194058256731,0,,,,,,
38.718714574451,1.0091749856900476,166.7091943424108,77.47847386199572,85.70647387717922,348.80953094054837,0,,,,,,
39.718714574451006,1.0207850579568787,165.7437915136162,77.21771079299359,86.557742402836,348.2996560554236,0,,,,,,
40.71871457445101,1.0322815074893414,164.7783886848216,76.95694772399145,87.40901092849278,347.7897811702989,0,,,,,,
41.71871457445102,1.0436665366862126,163.812985856027,76.69618465498931,88.26027945414955,347.27990628517415,0,,,,,,
42.71871457445103,1.0549422845258447,162.84758302723242,76.43542158598717,89.11154797980633,346.77003140004945,0,,,,,,
43.718714574451035,1.066110828978027,161.88218019843782,76.17465851698503,89.96281650546311,346.2601565149247,0,,,,,,
44.71871457445104,1.0771741893022733,160.91677736964323,75.9138954479829,90.81408503111989,345.7502816298,0,,,,,,
45.71871457445105,1.0881343282388947,159.95137454084863,75.65313237898076,91.66535355677667,345.2404067446752,0,,,,,,
46.718714574451056,1.0989931540988027,158.98597171205404,75.39236930997862,92.51662208243344,344.7305318595505,0,,,,,,
47.71871457445106,1.1097525227576097,158.02056888325944,75.13160624097648,93.36789060809022,344.22065697442576,0,,,,,,
48.71871457445107,1.1204142395592358,157.05516605446485,74.87084317197434,94.219159133747,343.71078208930106,0,,,,,,
49.71871457445108,1.130980061133909,156.08976322567025,74.6100801029722,95.07042765940378,343.2009072041763,0,,,,,,
50.718714574451084,1.1414516971351334,155.12436039687566,74.34931703397007,95.92169618506055,342.6910323190516,0,,,,,,
51.71871457445109,1.1518308118999256,154.15895756808106,74.08855396496793,96.77296471071733,342.18115743392684,0,,,,,,
52.7187145744511,1.1621190260363472,153.19355473928647,73.82779089596579,97.62423323637411,341.67128254880214,0,,,,,,
53.718714574451106,1.172317917942123,152.22815191049187,73.56702782696365,98.47550176203089,341.1614076636774,0,,,,,,
54.71871457445111,1.182429025257904,151.26274908169728,73.30626475796151,99.32677028768767,340.6515327785527,0,,,,,,
55.71871457445112,1.1924538462585204,150.29734625290268,73.04550168895938,100.17803881334444,340.1416578934279,0,,,,,,
56.71871457445113,1.202393841185374,149.3319434241081,72.78473861995724,101.02930733900122,339.6317830083032,0,,,,,,
57.718714574451134,1.2122504335229323,148.3665405953135,72.5239755509551,101.880575864658,339.12190812317846,0,,,,,,
58.71871457445114,1.2220250112221147,147.4011377665189,72.26321248195296,102.73184439031478,338.61203323805375,0,,,,,,
59.71871457445115,1.2317189278732033,146.4357349377243,72.00244941295082,103.58311291597155,338.102158352929,0,,,,,,
60.718714574451155,1.2413335038307516,145.4703321089297,71.74168634394869,104.43438144162833,337.5922834678043,0,,,,,,
61.71871457445116,1.2508700272928353,144.50492928013512,71.48092327494655,105.28564996728511,337.08240858267953,0,,,,,,
62.71871457445117,1.2603297553368462,143.53952645134052,71.22016020594441,106.13691849294189,336.57253369755483,0,,,,,,
63.71871457445118,1.2697139149139154,142.57412362254593,70.95939713694227,106.98818701859867,336.0626588124301,0,,,,,,
64.71871457445118,1.2790237038039316,141.60872079375133,70.69863406794013,107.83945554425544,335.55278392730537,0,,,,,,
65.7187145744512,1.288289850231872,140.64331796495674,70.437870998938,108.0,335.0429090421806,0,,,,,,
66.71871457445121,1.2975491094911313,139.67791513616214,70.17710792993586,108.0,334.5330341570559,0,,,,,,
67.71871457445123,1.3068083687503906,138.71251230736755,69.91634486093372,108.0,334.02315927193115,0,,,,,,
68.71871457445124,1.31606762800965,137.74710947857295,69.65558179193158,108.0,333.51328438680645,0,,,,,,
69.71871457445125,1.3253268872689092,136.78170664977836,69.39481872292944,108.0,333.0034095016817,0,,,,,,
70.71871457445127,1.3345861465281685,135.81630382098376,69.1340556539273,108.0,332.493534616557,0,,,,,,
71.71871457445128,1.3438454057874278,134.85090099218917,68.87329258492517,108.0,331.9836597314322,0,,,,,,
72.7187145744513,1.3531046650466871,133.88549816339457,68.61252951592303,108.0,331.47378484630747,0,,,,,,
73.71871457445131,1.3623639243059464,132.92009533459998,68.35176644692089,108.0,330.96390996118276,0,,,,,,
74.71871457445133,1.3716231835652057,131.95469250580538,68.09100337791875,108.0,330.454035076058,0,,,,,,
75.71871457445134,1.380882442824465,130.9892896770108,67.83024030891661,108.0,329.9441601909333,0,,,,,,
76.71871457445135,1.3901417020837243,130.0238868482162,67.56947723991448,108.0,329.43428530580854,0,,,,,,
77.71871457445137,1.3994009613429836,129.0584840194216,67.30871417091234,108.0,328.92441042068384,0,,,,,,
78.71871457445138,1.408660220602243,128.093081190627,67.0479511019102,108.0,328.4145355355591,0,,,,,,
79.71871457445138,1.4179194798615022,127.12767836183242,66.78718803290806,108.0,327.9046606504344,0,,,,,,
80.71871457445138,1.4271787391207615,126.16227553303784,66.52642496390592,108.0,327.3947857653096,0,,,,,,
81.71871457445138,1.4364379983800208,125.19687270424326,66.26566189490379,108.0,326.8849108801849,0,,,,,,
82.71871457445138,1.4456972576392801,124.23146987544868,66.00489882590165,108.0,326.3750359950602,0,,,,,,
83.71871457445138,1.4549565168985394,123.2660670466541,65.74413575689951,108.0,325.86516110993546,0,,,,,,
84.71871457445138,1.4642157761577987,122.30066421785952,65.48337268789737,108.0,325.35528622481075,0,,,,,,
85.71871457445138,1.473475035417058,121.33526138906494,65.22260961889523,108.0,324.845411339686,0,,,,,,
86.71871457445138,1.4827342946763173,120.36985856027036,64.9618465498931,108.0,324.3355364545613,0,,,,,,
87.71871457445138,1.4919935539355766,119.40445573147578,64.70108348089096,108.0,323.8256615694366,0,,,,,,
88.71871457445138,1.501252813194836,118.4390529026812,64.44032041188882,108.0,323.31578668431183,0,,,,,,
89.71871457445138,1.5105120724540952,117.47365007388662,64.17955734288668,108.0,322.80591179918713,0,,,,,,
90.71871457445138,1.5197713317133545,116.50824724509204,63.918794273884544,108.0,322.29603691406237,0,,,,,,
91.71871457445138,1.5290305909726138,115.54284441629746,63.658031204882406,108.0,321.78616202893767,0,,,,,,
92.71871457445138,1.5382898502318731,114.57744158750288,63.39726813588027,108.0,321.27628714381297,0,,,,,,
93.71871457445138,1.5475491094911324,113.6120387587083,63.13650506687813,108.0,320.7664122586882,0,,,,,,
94.71871457445138,1.5568083687503917,112.64663592991371,62.87574199787599,108.0,320.2565373735635,0,,,,,,
95.71871457445138,1.566067628009651,111.68123310111913,62.61497892887385,108.0,319.7466624884388,0,,,,,,
96.71871457445138,1.5753268872689103,110.71583027232455,62.354215859871715,108.0,319.23678760331404,0,,,,,,
97.71871457445138,1.5845861465281696,109.75042744352997,62.09345279086958,108.0,318.72691271818934,0,,,,,,
98.71871457445138,1.593845405787429,108.78502461473539,61.83268972186744,108.0,318.21703783306464,0,,,,,,
99.71871457445138,1.6031046650466882,107.81962178594081,61.5719266528653,108.0,317.7071629479399,0,,,,,,
100.71871457445138,1.6123639243059475,106.85421895714623,61.31116358386316,108.0,317.1972880628152,0,,,,,,
101.71871457445138,1.6216231835652068,105.88881612835165,61.050400514861025,108.0,316.6874131776904,0,,,,,,
102.71871457445138,1.6308824428244661,104.92341329955707,60.78963744585889,108.0,316.1775382925657,0,,,,,,
103.71871457445138,1.6401417020837255,103.95801047076249,60.52887437685675,108.0,315.667663407441,0,,,,,,
104.71871457445138,1.6494009613429848,102.99260764196791,60.26811130785461,108.0,315.15778852231625,0,,,,,,
105.71871457445138,1.658660220602244,102.02720481317333,60.00734823885247,108.0,314.64791363719155,0,,,,,,
105.74689432736068,1.6589211697736368,102.0,60.0,107.97886484086145,314.6482236955794,0,,,,,,
106.74689432736068,1.6682145167949336,101.0611236841134,59.65574535084158,107.22885261731263,314.6592265737399,0,,,,,,
107.74689432736068,1.677573094260352,100.1222473682268,59.311490701683155,106.4788403937638,314.67022945190035,0,,,,,,
108.74689432736068,1.686997824353916,99.18337105234019,58.96723605252473,105.72882817021498,314.6812323300608,0,,,,,,
109.74689432736068,1.6964896489546912,98.24449473645359,58.62298140336631,104.97881594666616,314.6922352082213,0,,,,,,
110.74689432736068,1.7060495302016403,97.30561842056699,58.27872675420789,104.22880372311734,314.70323808638176,0,,,,,,
111.74689432736068,1.7156784510788754,96.36674210468038,57.934472105049466,103.47879149956852,314.7142409645422,0,,,,,,
112.74689432736068,1.7253774160221973,95.42786578879378,57.59021745589104,102.7287792760197,314.7252438427027,0,,,,,,
113.74689432736068,1.735147451547857,94.48898947290718,57.24596280673262,101.97876705247087,314.73624672086316,0,,,,,,
114.74689432736068,1.7449896069045243,93.55011315702058,56.9017081575742,101.22875482892205,314.74724959902363,0,,,,,,
115.74689432736068,1.754904954749497,92.61123684113397,56.557453508415776,100.47874260537323,314.7582524771841,0,,,,,,
116.74689432736068,1.7648945918502454,91.67236052524737,56.21319885925735,99.7287303818244,314.76925535534457,0,,,,,,
117.74689432736068,1.774959639812433,90.73348420936077,55.86894421009893,98.97871815827558,314.78025823350504,0,,,,,,
118.74689432736068,1.7851012458356261,89.79460789347416,55.52468956094051,98.22870593472676,314.7912611116655,0,,,,,,
119.74689432736068,1.795320583497966,88.85573157758756,55.180434911782086,97.47869371117794,314.802263989826,0,,,,,,
120.74689432736068,1.8056188535711424,87.91685526170096,54.836180262623664,96.72868148762912,314.81326686798644,0,,,,,,
121.74689432736068,1.8159972848670864,86.97797894581436,54.49192561346524,95.9786692640803,314.8242697461469,0,,,,,,
122.74689432736068,1.8264571351178756,86.03910262992775,54.14767096430682,95.22865704053147,314.8352726243074,0,,,,,,
123.74689432736068,1.836999691890425,85.10022631404115,53.8034163151484,94.47864481698265,314.84627550246785,0,,,,,,
124.74689432736068,1.8476262735376303,84.16134999815455,53.459161665989974,93.72863259343383,314.8572783806283,0,,,,,,
125.74689432736068,1.8583382301877178,83.22247368226795,53.11490701683155,92.97862036988501,314.8682812587888,0,,,,,,
126.74689432736068,1.8691369447736597,82.28359736638134,52.77065236767313,92.22860814633619,314.87928413694925,0,,,,,,
127.74689432736068,1.8800238341046163,81.34472105049474,52.42639771851471,91.47859592278736,314.8902870151097,0,,,,,,
128.74689432736068,1.8910003499814816,80.40584473460814,52.082143069356285,90.72858369923854,314.9012898932702,0,,,,,,
129.74689432736068,1.902067980358729,79.46696841872154,51.73788842019786,89.97857147568972,314.91229277143066,0,,,,,,
130.74689432736068,1.9132282505548825,78.52809210283493,51.39363377103944,89.2285592521409,314.9232956495911,0,,,,,,
131.74689432736068,1.9244827245140752,77.58921578694833,51.04937912188102,88.47854702859208,314.9342985277516,0,,,,,,
132.74689432736068,1.9358330061213054,76.65033947106173,50.705124472722595,87.72853480504325,314.94530140591206,0,,,,,,
133.74678945142392,1.9472795348287188,75.71336198546871,50.35603501338985,86.97860123972896,314.9563031301353,0,,,,,,
134.74668528801243,1.9588251916125476,74.79209869660293,49.96736338255577,86.228667140012,314.9673048621985,0,,,,,,
135.7465811246009,1.9704716999813017,73.8914122321841,49.53313351619501,85.47873304029508,314.97830659426165,0,,,,,,
136.7464769611894,1.9822208373426358,73.01355383930479,49.05443076283093,84.72879894057816,314.98930832632476,0,,,,,,
137.7463727977779,1.99417564572123,72.16071770676739,48.53245163004337,82.55047562794925,314.98985339013643,0,,,,,,
138.74626863436637,2.006450132687358,71.33503548075478,47.96850079382281,80.3721523153204,314.9903984539481,0,,,,,,
139.74616447095485,2.0190618647660457,70.53857093682501,47.363987837559904,78.19382900269156,314.9909435177597,0,,,,,,
140.74606030754336,2.0320298973249136,69.77331482154716,46.72042372882103,76.01550569006265,314.9914885815714,0,,,,,,
141.74606030754336,2.045376358135465,69.0662080403606,46.013316947634486,73.83695545220887,314.99203370216463,0,,,,,,
142.74606030754336,2.0591225009048104,68.35910125917405,45.30621016644794,71.65840521435508,314.99257882275793,0,,,,,,
143.74606030754336,2.073293002916777,67.6519944779875,44.599103385261394,69.4798549765013,314.9931239433512,0,,,,,,
144.74606030754336,2.087914899705524,66.94488769680095,43.89199660407485,67.30130473864752,314.9936690639445,0,,,,,,
145.74606030754336,2.1030178954261407,66.2377809156144,43.1848898228883,65.12275450079373,314.9942141845377,0,,,,,,
146.74606030754336,2.1186347260224676,65.53067413442784,42.477783041701755,62.94420426293994,314.994759305131,0,,,,,,
147.74606030754336,2.1348015863493424,64.82356735324129,41.77067626051521,60.76565402508615,314.99530442572427,0,,,,,,
148.74606030754336,2.1515586352576297,64.11646057205473,41.06356947932866,58.58710378723236,314.9958495463176,0,,,,,,
149.74606030754336,2.1689505963657405,63.40935379086819,40.35646269814212,56.40855354937857,314.9963946669108,0,,,,,,
150.74606030754336,2.1870274771272498,62.70224700968164,39.64935591695557,54.230003311524776,314.9969397875041,0,,,,,,
151.74606030754336,2.205845435292514,61.995140228495096,38.942249135769025,52.051453073670984,314.99748490809736,0,,,,,,
152.74606030754336,2.22546783056942,61.28803344730855,38.23514235458248,49.87290283581719,314.99803002869066,0,,,,,,
153.74606030754336,2.2459665111063285,60.580926666122004,37.52803557339593,47.6943525979634,314.9985751492839,0,,,,,,
154.74606030754336,2.267423400657683,59.87381988493546,36.820928792209386,45.51580236010961,314.9991202698772,0,,,,,,
155.74606030754336,2.289932474899998,59.16671310374891,36.11382201102284,43.33725212225582,314.99966539047045,0,,,,,,
156.74606030754336,2.3133688986219,58.459606322562365,35.406715229836294,42.0,315.00021051106376,0,,,,,,
157.35978276103523,2.3279813379907544,58.0,35.0,42.0,315.0005450638117,0,,,,,,
