Distance (in),Time (s),X (in),Y (in),Velocity (in/s),Orientation (deg),Touch,Way X (in),Way Y (in),Way Velocity (in/s),Way Orientation (deg),Way Turn Radius (in),Touch this Point
0.0,0.0,302.0,72.0,0.0,0.0,0,302.0,72.0,0.0,0.0,3.0,0.0
1.000000000000006,0.16666666666666766,301.83336795695544,71.01398085098168,12.0,0.0,0,294.62,28.33,84.0,0.0,3.0,0
2.000000000000012,0.2500000000000015,301.6667359139109,70.02796170196336,12.0,0.0,0,200.07,28.0,84.0,0.0,3.0,0
3.0000000000000178,0.3333333333333353,301.5001038708663,69.04194255294505,12.0,0.0,0,202.5,83.12,60.0,0.0,5.0,0.0
4.000000000000024,0.4166666666666692,301.33347182782177,68.05592340392673,12.0,0.0,0,,,,,,
5.00000000000003,0.500000000000003,301.1668397847772,67.06990425490841,12.0,0.0,0,,,,,,
6.000000000000036,0.5833333333333368,301.00020774173265,66.08388510589009,12.0,0.0,0,,,,,,
7.000000000000043,0.6621769909621759,300.8335756986881,65.09786595687177,13.366656750186868,0.0,0,,,,,,
8.000000000000048,0.7320024791733765,300.66694365564354,64.11184680785345,15.276179143070705,0.0,0,,,,,,
9.000000000000053,0.7936132040656123,300.500311612599,63.125827658835135,17.185701535954543,0.0,0,,,,,,
10.000000000000059,0.8487385894955075,300.3336795695544,62.13980850981682,19.09522392883838,0.0,0,,,,,,
11.000000000000064,0.8986139382177937,300.16704752650986,61.1537893607985,21.004746321722216,0.0,0,,,,,,
12.00000000000007,0.9441523000946637,300.0004154834653,60.16777021178018,22.914268714606052,0.0,0,,,,,,
13.000000000000075,0.986047593021384,299.83378344042075,59.18175106276186,24.82379110748989,0.0,0,,,,,,
14.00000000000008,1.0248395309164955,299.6671513973762,58.19573191374354,26.733313500373725,0.0,0,,,,,,
15.000000000000085,1.0609561627498751,299.50051935433163,57.209712764725225,28.642835893257562,0.0,0,,,,,,
16.000000000000092,1.094742689303682,299.33388731128707,56.22369361570691,30.552358286141402,0.0,0,,,,,,
17.0000000000001,1.1264815475815007,299.1672552682425,55.23767446668859,32.46188067902524,0.0,0,,,,,,
18.000000000000107,1.1564067568148724,299.00062322519796,54.25165531767027,34.371403071909086,0.0,0,,,,,,
19.000000000000114,1.1847143871707646,298.8339911821534,53.26563616865195,36.28092546479293,0.0,0,,,,,,
20.00000000000012,1.2115703441750725,298.66735913910884,52.27961701963363,38.19044785767677,0.0,0,,,,,,
21.000000000000128,1.2371162544962435,298.5007270960643,51.293597870615315,40.09997025056062,0.0,0,,,,,,
22.000000000000135,1.2614739829420112,298.3340950530197,50.307578721597,42.00949264344446,0.0,0,,,,,,
23.000000000000142,1.284749145679078,298.16746300997517,49.32155957257868,43.919015036328304,0.0,0,,,,,,
24.00000000000015,1.3070338759592486,298.0008309669306,48.33554042356036,45.82853742921215,0.0,0,,,,,,
25.000000000000156,1.328409025411657,297.83419892388605,47.34952127454204,47.73805982209599,0.0,0,,,,,,
26.000000000000163,1.348945933709069,297.6675668808415,46.36350212552372,49.647582214979835,0.0,0,,,,,,
27.00000000000017,1.3687078643348805,297.50093483779693,45.377482976505405,51.55710460786368,0.0,0,,,,,,
28.000000000000178,1.3877511793015715,297.3343027947524,44.39146382748709,53.46662700074752,0.0,0,,,,,,
29.000000000000185,1.4061263077782034,297.1676707517078,43.40544467846877,55.376149393631366,0.0,0,,,,,,
30.000000000000192,1.4238785505437628,297.00103870866326,42.41942552945045,57.28567178651521,0.0,0,,,,,,
31.0000000000002,1.4410487525629105,296.8344066656187,41.43340638043213,59.19519417939905,0.0,0,,,,,,
32.000000000000206,1.4576738688036726,296.66777462257414,40.44738723141381,61.104716572282896,0.0,0,,,,,,
33.00000000000021,1.4737874430062574,296.5011425795296,39.461368082395495,63.01423896516674,0.0,0,,,,,,
34.00000000000022,1.4894200149938397,296.334510536485,38.47534893337718,64.92376135805058,0.0,0,,,,,,
35.00000000000023,1.5045994689527964,296.16787849344047,37.48932978435886,66.83328375093443,0.0,0,,,,,,
36.000000000000234,1.5193513326593882,296.0012464503959,36.50331063534054,68.74280614381827,0.0,0,,,,,,
37.00000000000024,1.5336990357164841,295.83461440735135,35.51729148632222,70.65232853670211,0.0,0,,,,,,
38.00000000000025,1.5476641333587242,295.6679823643068,34.5312723373039,72.56185092958596,0.0,0,,,,,,
39.000000000000256,1.561266501192075,295.50135032126224,33.545253188285585,74.4713733224698,0.0,0,,,,,,
40.00000000000026,1.5745245052828092,295.3347182782177,32.55923403926727,76.38089571535365,0.0,0,,,,,,
41.00000000000026,1.5874551512478463,295.1680862351731,31.573214890248952,78.29041810823747,0.0,0,,,,,,
41.99930398073543,1.6000655380185156,294.99235966375073,30.589482905402836,80.19861143674922,0.0,0,,,,,,
42.99468077689592,1.6123315832470457,294.5928150823969,29.67781460286868,82.09930571837464,0.0,0,,,,,,
43.99005757305642,1.6243970491499373,293.91696962105783,28.94705617580668,82.8966926412004,0.0,0,,,,,,
44.99005757305641,1.6364022491439671,292.9169757118089,28.943565980248223,83.69778316882929,0.0,0,,,,,,
45.990057573056404,1.6483284652346504,291.91698180256,28.940075784689768,84.0,0.0,0,,,,,,
46.9900575730564,1.6602332271394122,290.91698789331105,28.93658558913131,84.0,0.0,0,,,,,,
47.99005757305639,1.672137989044174,289.9169939840621,28.933095393572856,84.0,0.0,0,,,,,,
48.99005757305638,1.684042750948936,288.9170000748132,28.9296051980144,84.0,0.0,0,,,,,,
49.990057573056376,1.6959475128536978,287.91700616556426,28.926115002455944,84.0,0.0,0,,,,,,
50.99005757305637,1.7078522747584597,286.91701225631533,28.92262480689749,84.0,0.0,0,,,,,,
51.99005757305636,1.7197570366632215,285.9170183470664,28.919134611339032,84.0,0.0,0,,,,,,
52.990057573056355,1.7316617985679834,284.9170244378175,28.915644415780577,84.0,0.0,0,,,,,,
53.99005757305635,1.7435665604727453,283.91703052856855,28.91215422022212,84.0,0.0,0,,,,,,
54.99005757305634,1.7554713223775071,282.9170366193196,28.908664024663665,84.0,0.0,0,,,,,,
55.99005757305633,1.767376084282269,281.9170427100707,28.90517382910521,84.0,0.0,0,,,,,,
56.990057573056326,1.7792808461870309,280.91704880082176,28.901683633546753,84.0,0.0,0,,,,,,
57.99005757305632,1.7911856080917927,279.91705489157283,28.898193437988297,84.0,0.0,0,,,,,,
58.99005757305631,1.8030903699965546,278.9170609823239,28.89470324242984,84.0,0.0,0,,,,,,
59.990057573056305,1.8149951319013164,277.917067073075,28.891213046871385,84.0,0.0,0,,,,,,
60.9900575730563,1.8268998938060783,276.91707316382605,28.88772285131293,84.0,0.0,0,,,,,,
61.99005757305629,1.8388046557108402,275.9170792545771,28.884232655754474,84.0,0.0,0,,,,,,
62.99005757305628,1.850709417615602,274.9170853453282,28.880742460196018,84.0,0.0,0,,,,,,
63.990057573056276,1.862614179520364,273.91709143607926,28.877252264637562,84.0,0.0,0,,,,,,
64.99005757305628,1.8745189414251258,272.91709752683033,28.873762069079106,84.0,0.0,0,,,,,,
65.99005757305628,1.8864237033298876,271.9171036175814,28.87027187352065,84.0,0.0,0,,,,,,
66.99005757305628,1.8983284652346495,270.9171097083325,28.866781677962194,84.0,0.0,0,,,,,,
67.99005757305628,1.9102332271394113,269.91711579908355,28.86329148240374,84.0,0.0,0,,,,,,
68.99005757305628,1.9221379890441732,268.9171218898346,28.859801286845283,84.0,0.0,0,,,,,,
69.99005757305628,1.934042750948935,267.9171279805857,28.856311091286827,84.0,0.0,0,,,,,,
70.99005757305628,1.945947512853697,266.91713407133676,28.85282089572837,84.0,0.0,0,,,,,,
71.99005757305628,1.9578522747584588,265.91714016208783,28.849330700169915,84.0,0.0,0,,,,,,
72.99005757305628,1.9697570366632207,264.9171462528389,28.84584050461146,84.0,0.0,0,,,,,,
73.99005757305628,1.9816617985679825,263.91715234359,28.842350309053003,84.0,0.0,0,,,,,,
74.99005757305628,1.9935665604727444,262.91715843434105,28.838860113494547,84.0,0.0,0,,,,,,
75.99005757305628,2.0054713223775065,261.9171645250921,28.83536991793609,84.0,0.0,0,,,,,,
76.99005757305628,2.0173760842822683,260.9171706158432,28.831879722377636,84.0,0.0,0,,,,,,
77.99005757305628,2.02928084618703,259.91717670659426,28.82838952681918,84.0,0.0,0,,,,,,
78.99005757305628,2.041185608091792,258.91718279734533,28.824899331260724,84.0,0.0,0,,,,,,
79.99005757305628,2.053090369996554,257.9171888880964,28.821409135702268,84.0,0.0,0,,,,,,
80.99005757305628,2.064995131901316,256.9171949788475,28.817918940143812,84.0,0.0,0,,,,,,
81.99005757305628,2.0768998938060776,255.91720106959855,28.814428744585356,84.0,0.0,0,,,,,,
82.99005757305628,2.0888046557108395,254.91720716034962,28.8109385490269,84.0,0.0,0,,,,,,
83.99005757305628,2.1007094176156014,253.9172132511007,28.807448353468445,84.0,0.0,0,,,,,,
84.99005757305628,2.1126141795203632,252.91721934185176,28.80395815790999,84.0,0.0,0,,,,,,
85.99005757305628,2.124518941425125,251.91722543260283,28.800467962351533,84.0,0.0,0,,,,,,
86.99005757305628,2.136423703329887,250.9172315233539,28.796977766793077,84.0,0.0,0,,,,,,
87.99005757305628,2.148328465234649,249.91723761410498,28.79348757123462,84.0,0.0,0,,,,,,
88.99005757305628,2.1602332271394107,248.91724370485605,28.789997375676165,84.0,0.0,0,,,,,,
89.99005757305628,2.1721379890441725,247.91724979560712,28.78650718011771,84.0,0.0,0,,,,,,
90.99005757305628,2.1840427509489344,246.9172558863582,28.783016984559254,84.0,0.0,0,,,,,,
91.99005757305628,2.1959475128536963,245.91726197710926,28.779526789000798,84.0,0.0,0,,,,,,
92.99005757305628,2.207852274758458,244.91726806786033,28.776036593442342,84.0,0.0,0,,,,,,
93.99005757305628,2.21975703666322,243.9172741586114,28.772546397883886,84.0,0.0,0,,,,,,
94.99005757305628,2.231661798567982,242.91728024936248,28.76905620232543,84.0,0.0,0,,,,,,
95.99005757305628,2.2435665604727437,241.91728634011355,28.765566006766974,84.0,0.0,0,,,,,,
96.99005757305628,2.2554713223775056,240.91729243086462,28.76207581120852,84.0,0.0,0,,,,,,
97.99005757305628,2.2673760842822674,239.9172985216157,28.758585615650063,84.0,0.0,0,,,,,,
98.99005757305628,2.2792808461870293,238.91730461236676,28.755095420091607,84.0,0.0,0,,,,,,
99.99005757305628,2.291185608091791,237.91731070311783,28.75160522453315,84.0,0.0,0,,,,,,
100.99005757305628,2.303090369996553,236.9173167938689,28.748115028974695,84.0,0.0,0,,,,,,
101.99005757305628,2.314995131901315,235.91732288461998,28.74462483341624,84.0,0.0,0,,,,,,
102.99005757305628,2.3268998938060768,234.91732897537105,28.741134637857783,84.0,0.0,0,,,,,,
103.99005757305628,2.3388046557108386,233.91733506612212,28.737644442299327,84.0,0.0,0,,,,,,
104.99005757305628,2.3507094176156005,232.9173411568732,28.73415424674087,84.0,0.0,0,,,,,,
105.99005757305628,2.3626141795203623,231.91734724762426,28.730664051182416,84.0,0.0,0,,,,,,
106.99005757305628,2.374518941425124,230.91735333837534,28.72717385562396,84.0,0.0,0,,,,,,
107.99005757305628,2.386423703329886,229.9173594291264,28.723683660065504,84.0,0.0,0,,,,,,
108.99005757305628,2.398328465234648,228.91736551987748,28.720193464507048,84.0,0.0,0,,,,,,
109.99005757305628,2.41023322713941,227.91737161062855,28.716703268948592,84.0,0.0,0,,,,,,
110.99005757305628,2.4221379890441717,226.91737770137962,28.713213073390136,84.0,0.0,0,,,,,,
111.99005757305628,2.4340427509489335,225.9173837921307,28.70972287783168,84.0,0.0,0,,,,,,
112.99005757305628,2.4459475128536954,224.91738988288176,28.706232682273225,84.0,0.0,0,,,,,,
113.99005757305628,2.4578522747584572,223.91739597363284,28.70274248671477,84.0,0.0,0,,,,,,
114.99005757305628,2.469757036663219,222.9174020643839,28.699252291156313,84.0,0.0,0,,,,,,
115.99005757305628,2.481661798567981,221.91740815513498,28.695762095597857,84.0,0.0,0,,,,,,
116.99005757305628,2.493566560472743,220.91741424588605,28.6922719000394,84.0,0.0,0,,,,,,
117.99005757305628,2.5054713223775047,219.91742033663712,28.688781704480945,84.0,0.0,0,,,,,,
118.99005757305628,2.5173760842822666,218.9174264273882,28.68529150892249,84.0,0.0,0,,,,,,
119.99005757305628,2.5292808461870284,217.91743251813926,28.681801313364033,84.0,0.0,0,,,,,,
120.99005757305628,2.5411856080917903,216.91743860889034,28.678311117805578,84.0,0.0,0,,,,,,
121.99005757305628,2.553090369996552,215.9174446996414,28.67482092224712,84.0,0.0,0,,,,,,
122.99005757305628,2.564995131901314,214.91745079039248,28.671330726688666,84.0,0.0,0,,,,,,
123.99005757305628,2.576899893806076,213.91745688114355,28.66784053113021,84.0,0.0,0,,,,,,
124.99005757305628,2.5888046557108377,212.91746297189462,28.664350335571754,84.0,0.0,0,,,,,,
125.99005757305628,2.6007094176155996,211.9174690626457,28.6608601400133,84.0,0.0,0,,,,,,
126.99005757305628,2.6126141795203615,210.91747515339677,28.657369944454842,84.0,0.0,0,,,,,,
127.99005757305628,2.6245189414251233,209.91748124414784,28.653879748896387,84.0,0.0,0,,,,,,
128.99005757305628,2.636423703329885,208.9174873348989,28.65038955333793,84.0,0.0,0,,,,,,
129.99005757305628,2.648328465234647,207.91749342564998,28.646899357779475,84.0,0.0,0,,,,,,
130.99005757305628,2.660233227139409,206.91749951640105,28.64340916222102,84.0,0.0,0,,,,,,
131.99005757305628,2.6721379890441708,205.91750560715212,28.639918966662563,84.0,0.0,0,,,,,,
132.99005757305628,2.6840427509489326,204.9175116979032,28.636428771104107,84.0,0.0,0,,,,,,
133.99005757305628,2.6959475128536945,203.91751778865427,28.63293857554565,84.0,0.0,0,,,,,,
135.21884177084587,2.7105758961607136,202.8453232605201,28.03268071547503,84.0,0.0,0,,,,,,
136.21421856700636,2.722425619924529,201.89067900117246,28.314512765514213,84.0,0.0,0,,,,,,
137.20959536316684,2.7342753436883442,201.0807952292024,28.893186457878304,84.0,0.0,0,,,,,,
138.20497215932733,2.7461566012425234,200.5048288964887,29.70499785833721,83.55411481007161,0.0,0,,,,,,
139.20497215932733,2.7581570615726836,200.5488717490275,30.70402750111076,83.10615862739955,0.0,0,,,,,,
140.20497215932733,2.770222381205109,200.59291460156632,31.703057143884312,82.6582024447275,0.0,0,,,,,,
141.20497215932733,2.782353265044242,200.63695745410513,32.70208678665786,82.21024626205543,0.0,0,,,,,,
142.20497215932733,2.7945504295488846,200.68100030664394,33.70111642943141,81.76229007938338,0.0,0,,,,,,
143.20497215932733,2.80681460298611,200.72504315918275,34.70014607220496,81.31433389671132,0.0,0,,,,,,
144.20497215932733,2.819146525692185,200.76908601172155,35.69917571497851,80.86637771403926,0.0,0,,,,,,
145.20497215932733,2.8315469503407398,200.81312886426036,36.69820535775206,80.4184215313672,0.0,0,,,,,,
146.20497215932733,2.8440166422184294,200.85717171679917,37.69723500052561,79.97046534869514,0.0,0,,,,,,
147.20497215932733,2.856556379508334,200.90121456933798,38.69626464329916,79.52250916602308,0.0,0,,,,,,
148.20497215932733,2.869166953581366,200.9452574218768,39.69529428607271,79.07455298335103,0.0,0,,,,,,
149.20497215932733,2.8818491692959567,200.9893002744156,40.69432392884626,78.62659680067897,0.0,0,,,,,,
150.20497215932733,2.894603845306298,201.0333431269544,41.69335357161981,78.17864061800691,0.0,0,,,,,,
151.20497215932733,2.907431814379448,201.07738597949322,42.69238321439336,77.73068443533485,0.0,0,,,,,,
152.20497215932733,2.920333923721596,201.12142883203202,43.69141285716691,77.28272825266279,0.0,0,,,,,,
153.20497215932733,2.933311035313809,201.16547168457083,44.69044249994046,76.83477206999073,0.0,0,,,,,,
154.20497215932733,2.9463640262575996,201.20951453710964,45.68947214271401,76.38681588731868,0.0,0,,,,,,
155.20497215932733,2.959493789130652,201.25355738964845,46.68850178548756,75.93885970464662,0.0,0,,,,,,
156.20497215932733,2.9727012323530713,201.29760024218726,47.68753142826111,75.49090352197456,0.0,0,,,,,,
157.20497215932733,2.9859872805645336,201.34164309472607,48.68656107103466,75.0429473393025,0.0,0,,,,,,
158.20497215932733,2.9993528750127245,201.38568594726488,49.68559071380821,74.59499115663044,0.0,0,,,,,,
159.20497215932733,3.012798973953478,201.42972879980368,50.68462035658176,74.14703497395838,0.0,0,,,,,,
160.20497215932733,3.0263265530630354,201.4737716523425,51.68364999935531,73.69907879128633,0.0,0,,,,,,
161.20497215932733,3.039936605862877,201.5178145048813,52.68267964212886,73.25112260861427,0.0,0,,,,,,
162.20497215932733,3.053630144157578,201.5618573574201,53.68170928490241,72.80316642594221,0.0,0,,,,,,
163.20497215932733,3.0674081984861794,201.60590020995892,54.68073892767596,72.35521024327015,0.0,0,,,,,,
164.20497215932733,3.081271818587575,201.64994306249773,55.67976857044951,71.90725406059809,0.0,0,,,,,,
165.20497215932733,3.095222073880439,201.69398591503654,56.67879821322306,71.45929787792603,0.0,0,,,,,,
166.20497215932733,3.109260053958241,201.73802876757534,57.67782785599661,71.01134169525398,0.0,0,,,,,,
167.20497215932733,3.123386869099929,201.78207162011415,58.67685749877016,70.56338551258192,0.0,0,,,,,,
168.20497215932733,3.137603650796869,201.82611447265296,59.67588714154371,70.11542932990986,0.0,0,,,,,,
169.20497215932733,3.151911552296675,201.87015732519177,60.67491678431726,69.6674731472378,0.0,0,,,,,,
170.20497215932733,3.1663117491645747,201.91420017773058,61.67394642709081,69.21951696456574,0.0,0,,,,,,
171.20497215932733,3.1808054398630032,201.9582430302694,62.67297606986436,68.77156078189368,0.0,0,,,,,,
172.20497215932733,3.1953938463501332,202.0022858828082,63.67200571263791,68.32360459922162,0.0,0,,,,,,
173.20497215932733,3.210078214698089,202.046328735347,64.67103535541146,67.87564841654957,0.0,0,,,,,,
174.20497215932733,3.2248598157316306,202.0903715878858,65.67006499818501,67.42769223387751,0.0,0,,,,,,
175.20497215932733,3.239739945688123,202.13441444042462,66.66909464095856,66.97973605120545,0.0,0,,,,,,
176.20497215932733,3.2547199268996487,202.17845729296343,67.66812428373211,66.53177986853339,0.0,0,,,,,,
177.20497215932733,3.26980110849816,202.22250014550224,68.66715392650566,66.08382368586133,0.0,0,,,,,,
178.20497215932733,3.284984867144614,202.26654299804105,69.66618356927921,65.63586750318927,0.0,0,,,,,,
179.20497215932733,3.3002726077830733,202.31058585057986,70.66521321205276,65.18791132051722,0.0,0,,,,,,
180.20497215932733,3.3156657644208063,202.35462870311866,71.66424285482631,64.73995513784516,0.0,0,,,,,,
181.20497215932733,3.3311658009354685,202.39867155565747,72.66327249759986,64.2919989551731,0.0,0,,,,,,
182.20497215932733,3.3467742119105055,202.44271440819628,73.66230214037341,63.84404277250104,0.0,0,,,,,,
183.20497215932733,3.362492523499963,202.4867572607351,74.66133178314696,63.39608658982898,0.0,0,,,,,,
184.20497215932733,3.378322294323963,202.5308001132739,75.66036142592051,62.948130407156924,0.0,0,,,,,,
185.20497215932733,3.3942651163961517,202.5748429658127,76.65939106869406,62.500174224484866,0.0,0,,,,,,
186.20497215932733,3.4103226160845073,202.61888581835152,77.65842071146761,62.05221804181281,0.0,0,,,,,,
187.20497215932733,3.4264964551069506,202.66292867089032,78.65745035424116,61.60426185914075,0.0,0,,,,,,
188.20497215932733,3.4427883315632877,202.70697152342913,79.65647999701471,61.15630567646869,0.0,0,,,,,,
189.20497215932733,3.459199981005086,202.75101437596794,80.65550963978826,60.70834949379663,0.0,0,,,,,,
190.20497215932733,3.4757331775451648,202.79505722850675,81.65453928256181,60.260393311124574,0.0,0,,,,,,
191.20497215932733,3.4923637567818866,202.83910008104556,82.65356892533536,60.0,0.0,0,,,,,,
191.78164087911185,3.5019749021116287,202.5,83.12,60.0,0.0,0,,,,,,
