Distance (in),Time (s),X (in),Y (in),Velocity (in/s),Orientation (deg),Touch,Way X (in),Way Y (in),Way Velocity (in/s),Way Orientation (deg),Way Turn Radius (in),Touch this Point
0.0,0.0,205.0,83.12,12.0,0.0,0,205.0,83.12,12.0,0.0,5.0,0.0
0.9999999999999873,0.07697306684040775,204.00976925741026,82.98056156760012,13.983114381380677,359.727659311719,0,168.64,78.0,96.0,350.0,3.0,0.0
1.9999999999999747,0.14375249470212254,203.0195385148205,82.84112313520023,15.966228762761354,359.45531862343796,0,102.0,65.0,84.0,305.0,7.0,0
2.999999999999962,0.20272245709844827,202.02930777223077,82.70168470280035,17.94934314414203,359.182977935157,0,72.0,55.0,60.0,305.0,20.0,0
3.9999999999999494,0.2555182578429876,201.03907702964102,82.56224627040046,19.932457525522707,358.910637246876,0,57.0,55.0,24.0,305.0,3.0,0
4.999999999999937,0.3033102334061253,200.04884628705128,82.42280783800058,21.915571906903384,358.63829655859496,0,,,,,,
5.9999999999999245,0.3469647653965628,199.05861554446153,82.2833694056007,23.89868628828406,358.36595587031394,0,,,,,,
6.999999999999912,0.387141150205523,198.0683848018718,82.14393097320081,25.881800669664738,358.0936151820329,0,,,,,,
7.9999999999999,0.4243527262652173,197.07815405928204,82.00449254080092,27.864915051045415,357.82127449375196,0,,,,,,
8.999999999999886,0.45900699694746877,196.0879233166923,81.86505410840104,29.84802943242609,357.54893380547094,0,,,,,,
9.999999999999874,0.4914328531115205,195.09769257410255,81.72561567600115,31.83114381380677,357.2765931171899,0,,,,,,
10.999999999999861,0.5218995718578837,194.1074618315128,81.58617724360127,33.81425819518745,357.0042524289089,0,,,,,,
11.999999999999849,0.5506304028673974,193.11723108892306,81.44673881120139,35.79737257656813,356.7319117406279,0,,,,,,
12.999999999999837,0.5778124928691014,192.12700034633332,81.3073003788015,37.78048695794881,356.4595710523469,0,,,,,,
13.999999999999824,0.6036042720223057,191.13676960374357,81.16786194640162,39.76360133932949,356.1872303640659,0,,,,,,
14.999999999999812,0.6281410432205676,190.14653886115383,81.02842351400173,41.74671572071017,355.9148896757849,0,,,,,,
15.9999999999998,0.6515392746388811,189.15630811856408,80.88898508160185,43.72983010209085,355.64254898750386,0,,,,,,
16.999999999999787,0.6738999405424946,188.16607737597434,80.74954664920196,45.71294448347153,355.37020829922284,0,,,,,,
17.999999999999773,0.695311152827267,187.1758466333846,80.61010821680208,47.696058864852205,355.0978676109419,0,,,,,,
18.99999999999976,0.7158502566285126,186.18561589079485,80.47066978440219,49.67917324623288,354.82552692266086,0,,,,,,
19.999999999999744,0.7355855158477344,185.1953851482051,80.3312313520023,51.66228762761355,354.55318623437984,0,,,,,,
20.99999999999973,0.754577481267368,184.20515440561536,80.19179291960242,53.645402008994225,354.2808455460988,0,,,,,,
21.999999999999716,0.7728801103786485,183.21492366302562,80.05235448720254,55.6285163903749,354.0085048578178,0,,,,,,
22.9999999999997,0.7905416910999847,182.22469292043587,79.91291605480265,57.61163077175557,353.73616416953683,0,,,,,,
23.999999999999687,0.8076056092035665,181.23446217784613,79.77347762240277,59.594745153136245,353.4638234812558,0,,,,,,
24.999999999999673,0.8241109901447072,180.24423143525638,79.63403919000288,61.57785953451692,353.1914827929748,0,,,,,,
25.99999999999966,0.8400932391784771,179.25400069266664,79.494600757603,63.56097391589759,352.9191421046938,0,,,,,,
26.999999999999645,0.8555844985118842,178.2637699500769,79.35516232520311,65.54408829727826,352.64680141641276,0,,,,,,
27.99999999999963,0.8706140363282839,177.27353920748715,79.21572389280323,67.52720267865894,352.3744607281318,0,,,,,,
28.999999999999616,0.8852085795148036,176.2833084648974,79.07628546040334,69.51031706003961,352.1021200398508,0,,,,,,
29.999999999999602,0.8993925995940943,175.29307772230766,78.93684702800346,71.49343144142028,351.82977935156975,0,,,,,,
30.999999999999588,0.9131885595420964,174.3028469797179,78.79740859560357,73.47654582280096,351.55743866328874,0,,,,,,
31.999999999999574,0.9266171277415417,173.31261623712817,78.65797016320369,75.45966020418163,351.2850979750077,0,,,,,,
32.99999999999956,0.9396973641861096,172.32238549453842,78.5185317308038,77.4427745855623,351.01275728672675,0,,,,,,
33.999999999999545,0.9524468831448821,171.33215475194868,78.37909329840392,79.42588896694298,350.74041659844573,0,,,,,,
34.99999999999953,0.964881995770068,170.34192400935893,78.23965486600403,81.40900334832365,350.4680759101647,0,,,,,,
35.99999999999952,0.9770178355441981,169.3516932667692,78.10021643360415,83.39211772970432,350.1957352218837,0,,,,,,
36.718714574450985,0.9856050328889621,168.64,78.0,84.0,349.7173159728108,0,,,,,,
37.718714574450985,0.9975097947937239,167.65850130613822,77.80853116716382,84.0,349.05165638264873,0,,,,,,
38.718714574450985,1.0094145566984858,166.67700261227645,77.61706233432764,84.0,348.38599679248665,0,,,,,,
39.718714574450985,1.0213193186032477,165.6955039184147,77.42559350149146,84.0,347.7203372023246,0,,,,,,
40.718714574450985,1.0332240805080095,164.71400522455292,77.23412466865528,84.0,347.0546776121625,0,,,,,,
41.718714574450985,1.0451288424127714,163.73250653069115,77.0426558358191,84.0,346.3890180220004,0,,,,,,
42.718714574450985,1.0570336043175332,162.7510078368294,76.85118700298293,84.0,345.72335843183834,0,,,,,,
43.718714574450985,1.068938366222295,161.76950914296762,76.65971817014675,84.0,345.05769884167626,0,,,,,,
44.718714574450985,1.080843128127057,160.78801044910585,76.46824933731057,84.0,344.3920392515142,0,,,,,,
45.718714574450985,1.0927478900318188,159.8065117552441,76.27678050447439,84.0,343.7263796613521,0,,,,,,
46.718714574450985,1.1046526519365807,158.82501306138232,76.08531167163821,84.0,343.06072007119,0,,,,,,
47.718714574450985,1.1165574138413425,157.84351436752056,75.89384283880203,84.0,342.39506048102794,0,,,,,,
48.718714574450985,1.1284621757461044,156.8620156736588,75.70237400596585,84.0,341.72940089086586,0,,,,,,
49.718714574450985,1.1403669376508663,155.88051697979702,75.51090517312967,84.0,341.0637413007038,0,,,,,,
50.718714574450985,1.1522716995556281,154.89901828593526,75.31943634029349,84.0,340.3980817105417,0,,,,,,
51.718714574450985,1.16417646146039,153.9175195920735,75.12796750745731,84.0,339.7324221203796,0,,,,,,
52.718714574450985,1.1760812233651519,152.93602089821172,74.93649867462113,84.0,339.06676253021755,0,,,,,,
53.718714574450985,1.1879859852699137,151.95452220434996,74.74502984178496,84.0,338.40110294005547,0,,,,,,
54.718714574450985,1.1998907471746756,150.9730235104882,74.55356100894878,84.0,337.7354433498934,0,,,,,,
55.718714574450985,1.2117955090794374,149.99152481662642,74.3620921761126,84.0,337.0697837597313,0,,,,,,
56.718714574450985,1.2237002709841993,149.01002612276466,74.17062334327642,84.0,336.4041241695692,0,,,,,,
57.718714574450985,1.2356050328889612,148.0285274289029,73.97915451044024,84.0,335.7384645794071,0,,,,,,
58.718714574450985,1.247509794793723,147.04702873504112,73.78768567760406,84.0,335.072804989245,0,,,,,,
59.718714574450985,1.259414556698485,146.06553004117936,73.59621684476788,84.0,334.40714539908294,0,,,,,,
60.718714574450985,1.2713193186032468,145.0840313473176,73.4047480119317,84.0,333.74148580892086,0,,,,,,
61.718714574450985,1.2832240805080086,144.10253265345582,73.21327917909552,84.0,333.0758262187588,0,,,,,,
62.718714574450985,1.2951288424127705,143.12103395959406,73.02181034625934,84.0,332.4101666285967,0,,,,,,
63.718714574450985,1.3070336043175323,142.1395352657323,72.83034151342316,84.0,331.7445070384346,0,,,,,,
64.71871457445098,1.3189383662222942,141.15803657187053,72.63887268058699,84.0,331.07884744827254,0,,,,,,
65.71871457445098,1.330843128127056,140.17653787800876,72.4474038477508,84.0,330.41318785811046,0,,,,,,
66.71871457445098,1.342747890031818,139.195039184147,72.25593501491463,84.0,329.7475282679484,0,,,,,,
67.71871457445098,1.3546526519365798,138.21354049028523,72.06446618207845,84.0,329.0818686777863,0,,,,,,
68.71871457445098,1.3665574138413417,137.23204179642346,71.87299734924227,84.0,328.4162090876242,0,,,,,,
69.71871457445098,1.3784621757461035,136.2505431025617,71.68152851640609,84.0,327.75054949746215,0,,,,,,
70.71871457445098,1.3903669376508654,135.26904440869993,71.49005968356991,84.0,327.08488990730007,0,,,,,,
71.71871457445098,1.4022716995556272,134.28754571483816,71.29859085073373,84.0,326.419230317138,0,,,,,,
72.71871457445098,1.4141764614603891,133.3060470209764,71.10712201789755,84.0,325.7535707269759,0,,,,,,
73.71871457445098,1.426081223365151,132.32454832711463,70.91565318506137,84.0,325.08791113681383,0,,,,,,
74.71871457445098,1.4379859852699128,131.34304963325286,70.7241843522252,84.0,324.42225154665175,0,,,,,,
75.71871457445098,1.4498907471746747,130.3615509393911,70.53271551938901,84.0,323.7565919564897,0,,,,,,
76.71871457445098,1.4617955090794366,129.38005224552933,70.34124668655284,84.0,323.0909323663276,0,,,,,,
77.71871457445098,1.4737002709841984,128.39855355166756,70.14977785371666,84.0,322.4252727761655,0,,,,,,
78.71871457445098,1.4856050328889603,127.4170548578058,69.95830902088048,84.0,321.75961318600343,0,,,,,,
79.71871457445098,1.4975097947937221,126.43555616394403,69.7668401880443,84.0,321.09395359584136,0,,,,,,
80.71871457445098,1.509414556698484,125.45405747008226,69.57537135520812,84.0,320.4282940056793,0,,,,,,
81.71871457445098,1.5213193186032459,124.4725587762205,69.38390252237194,84.0,319.7626344155172,0,,,,,,
82.71871457445098,1.5332240805080077,123.49106008235873,69.19243368953576,84.0,319.0969748253551,0,,,,,,
83.71871457445098,1.5451288424127696,122.50956138849696,69.00096485669958,84.0,318.43131523519304,0,,,,,,
84.71871457445098,1.5570336043175315,121.5280626946352,68.8094960238634,84.0,317.76565564503096,0,,,,,,
85.71871457445098,1.5689383662222933,120.54656400077343,68.61802719102722,84.0,317.0999960548689,0,,,,,,
86.71871457445098,1.5808431281270552,119.56506530691166,68.42655835819104,84.0,316.4343364647068,0,,,,,,
87.71871457445098,1.592747890031817,118.5835666130499,68.23508952535487,84.0,315.7686768745447,0,,,,,,
88.71871457445098,1.604652651936579,117.60206791918813,68.04362069251869,84.0,315.10301728438264,0,,,,,,
89.71871457445098,1.6165574138413408,116.62056922532636,67.85215185968251,84.0,314.43735769422057,0,,,,,,
90.71871457445098,1.6284621757461026,115.6390705314646,67.66068302684633,84.0,313.7716981040585,0,,,,,,
91.71871457445098,1.6403669376508645,114.65757183760283,67.46921419401015,84.0,313.1060385138964,0,,,,,,
92.71871457445098,1.6522716995556264,113.67607314374106,67.27774536117397,84.0,312.44037892373433,0,,,,,,
93.71871457445098,1.6641764614603882,112.6945744498793,67.08627652833779,84.0,311.77471933357225,0,,,,,,
94.71871457445098,1.67608122336515,111.71307575601753,66.89480769550161,84.0,311.10905974341017,0,,,,,,
95.71871457445098,1.687985985269912,110.73157706215576,66.70333886266543,84.0,310.4434001532481,0,,,,,,
96.71871457445098,1.6998907471746738,109.750078368294,66.51187002982925,84.0,309.777740563086,0,,,,,,
97.71871457445098,1.7117955090794357,108.76857967443223,66.32040119699307,84.0,309.11208097292393,0,,,,,,
98.71871457445098,1.7237002709841975,107.78708098057047,66.1289323641569,84.0,308.44642138276186,0,,,,,,
99.71871457445098,1.7356050328889594,106.8055822867087,65.93746353132072,84.0,307.7807617925998,0,,,,,,
100.71871457445098,1.7475097947937213,105.82408359284693,65.74599469848454,84.0,307.1151022024377,0,,,,,,
101.71871457445098,1.7594145566984831,104.84258489898517,65.55452586564836,84.0,306.4494426122756,0,,,,,,
102.71871457445098,1.771319318603245,103.8610862051234,65.36305703281218,84.0,305.78378302211354,0,,,,,,
103.71871457445098,1.7832240805080068,102.87958751126163,65.171588199976,84.0,305.11812343195146,0,,,,,,
104.61488236026926,1.793935599483858,102.0,65.0,83.32786224599288,305.1148152978578,0,,,,,,
105.61488236026926,1.8059906395760377,101.05131670194949,64.68377223398316,82.57784895088943,305.11112387517335,0,,,,,,
106.61488236026926,1.8181556690565255,100.10263340389898,64.36754446796633,81.82783565578599,305.10743245248887,0,,,,,,
107.61488236026926,1.8304327134781369,99.15395010584847,64.05131670194949,81.07782236068255,305.10374102980444,0,,,,,,
108.61488236026926,1.8428238548672382,98.20526680779795,63.73508893593265,80.3278090655791,305.10004960711996,0,,,,,,
109.61488236026926,1.855331233842794,97.25658350974744,63.418861169915814,79.57779577047566,305.09635818443553,0,,,,,,
110.61488236026926,1.8679570518357436,96.30790021169693,63.10263340389898,78.82778247537222,305.09266676175105,0,,,,,,
111.61488236026926,1.8807035734144661,95.35921691364642,62.78640563788214,78.07776918026877,305.0889753390666,0,,,,,,
112.61488236026926,1.8935731287224766,94.41053361559591,62.4701778718653,77.32775588516533,305.08528391638214,0,,,,,,
113.61488236026926,1.9065681160349144,93.4618503175454,62.153950105848466,76.57774259006189,305.0815924936977,0,,,,,,
114.61488236026926,1.9196910044408428,92.51316701949489,61.83772233983163,75.82772929495844,305.07790107101323,0,,,,,,
115.61488236026926,1.9329443366588601,91.56448372144438,61.52149457381479,75.077715999855,305.0742096483288,0,,,,,,
116.61488236026926,1.9463307319940537,90.61580042339386,61.205266807797955,74.32770270475156,305.0705182256443,0,,,,,,
117.61488236026926,1.9598528894448994,89.66711712534335,60.88903904178112,73.57768940964812,305.0668268029599,0,,,,,,
118.61488236026926,1.9735135909693222,88.71843382729284,60.57281127576428,72.82767611454467,305.0631353802754,0,,,,,,
119.61488236026926,1.9873157049198036,87.76975052924233,60.25658350974744,72.07766281944123,305.059443957591,0,,,,,,
120.61488236026926,2.001262189658148,86.82106723119182,59.940355743730606,71.32764952433779,305.0557525349065,0,,,,,,
121.61488236026926,2.0153560973612983,85.87238393314131,59.62412797771377,70.57763622923434,305.0520611122221,0,,,,,,
122.61488236026926,2.0296005780304514,84.9237006350908,59.30790021169693,69.8276229341309,305.0483696895376,0,,,,,,
123.61488236026926,2.043998883716644,83.97501733704028,58.991672445680095,69.07760963902746,305.04467826685317,0,,,,,,
124.61488236026926,2.0585543729769866,83.02633403898977,58.67544467966326,68.32759634392401,305.0409868441687,0,,,,,,
125.61488236026926,2.0732705155768234,82.07765074093926,58.35921691364642,67.57758304882057,305.03729542148426,0,,,,,,
126.61488236026926,2.0881508974542826,81.12896744288875,58.042989147629584,66.82756975371713,305.0336039987998,0,,,,,,
127.61488236026926,2.1031992259649885,80.18028414483824,57.72676138161275,66.07755645861369,305.02991257611535,0,,,,,,
128.61488236026926,2.118419335426123,79.23160084678773,57.41053361559591,65.32754316351024,305.02622115343087,0,,,,,,
129.61488236026926,2.1338151929805744,78.28291754873722,57.09430584957907,64.5775298684068,305.02252973074644,0,,,,,,
130.61488236026926,2.1493909048036133,77.3342342506867,56.778078083562235,63.827516573303356,305.01883830806196,0,,,,,,
131.61488236026926,2.1651507226763838,76.3855509526362,56.4618503175454,63.07750327819991,305.01514688537753,0,,,,,,
132.61488236026926,2.1810990509525374,75.43686765458568,56.14562255152856,62.32748998309647,305.01145546269305,0,,,,,,
133.61462760281242,2.197236316918822,74.48540658379778,55.83868219777425,61.57766775947269,305.0077649804261,0,,,,,,
134.6145234394009,2.2135737633672226,73.52057763049021,55.576200246230144,60.82773258831275,305.00407394225283,0,,,,,,
135.6144192759894,2.230113880871249,72.54383583225093,55.362267678351095,60.07779741715279,305.0003829040795,0,,,,,,
136.61431511257788,2.247107391998949,71.55762253489829,55.19741921414288,57.60192504568923,305.0003566269313,0,,,,,,
137.6142109491664,2.2648473684770662,70.56440275806567,55.082066888914596,55.1260526742256,305.00033034978304,0,,,,,,
138.6142109491664,2.283404379898052,69.56440275806567,55.082066888914596,52.649922380583284,305.00030406989737,0,,,,,,
139.6142109491664,2.302855145807036,68.56440275806567,55.082066888914596,50.17379208694097,305.0002777900117,0,,,,,,
140.6142109491664,2.3232901135193504,67.56440275806567,55.082066888914596,47.69766179329866,305.0002515101261,0,,,,,,
141.6142109491664,2.3448141919053347,66.56440275806567,55.082066888914596,45.221531499656344,305.0002252302404,0,,,,,,
142.6142109491664,2.367550007949891,65.56440275806567,55.082066888914596,42.74540120601403,305.00019895035473,0,,,,,,
143.6142109491664,2.391642134666333,64.56440275806567,55.082066888914596,40.26927091237172,305.00017267046906,0,,,,,,
144.6142109491664,2.417262660099411,63.56440275806567,55.082066888914596,37.7931406187294,305.0001463905834,0,,,,,,
145.6142109491664,2.4446186424654845,62.56440275806567,55.082066888914596,35.31701032508709,305.00012011069776,0,,,,,,
146.6142109491664,2.473962273694944,61.56440275806567,55.082066888914596,32.840880031444776,305.0000938308121,0,,,,,,
147.6142109491664,2.5056050246223793,60.56440275806567,55.082066888914596,30.36474973780246,305.0000675509264,0,,,,,,
148.6142109491664,2.5399378027618327,59.56440275806567,55.082066888914596,27.888619444160142,305.0000412710408,0,,,,,,
149.6142109491664,2.5774604744797656,58.56440275806567,55.082066888914596,25.412489150517825,305.0000149911551,0,,,,,,
150.6142109491664,2.617936071527866,57.56440275806567,55.082066888914596,24.0,304.99998871126945,0,,,,,,
151.1845489608474,2.641700155347908,57.0,55.0,24.0,304.99997372285173,0,,,,,,
