Distance (in),Time (s),X (in),Y (in),Velocity (in/s),Orientation (deg),Touch,Rotational Velocity (deg/s),Way X (in),Way Y (in),Way Velocity (in/s),Way Orientation (deg),Way Turn Radius (in),Touch this Point
0.0,0.0,28.0,50.0,24.0,135.0,0,0.0,28.0,50.0,24.0,135.0,3.0,0.0
0.9999999999999996,0.03985658974115251,28.924678098474715,50.3807498052543,26.17990783930442,135.0,0,0.0,45.0,57.0,180.0,135.0,3.0,0.0
1.9999999999999991,0.07652710933671134,29.84935619694943,50.761499610508594,28.35981567860884,135.0,0,0.0,69.07,63.67,180.0,135.0,3.0,0
2.9999999999999987,0.11048323237745145,30.774034295424144,51.14224941576289,30.53972351791326,135.0,0,0.0,93.68,69.23,60.0,135.0,3.0,0
3.9999999999999982,0.1420991096488502,31.69871239389886,51.52299922101719,32.71963135721768,135.0,0,0.0,,,,,,
4.999999999999998,0.17167652066442182,32.623390492373574,51.903749026271484,34.8995391965221,135.0,0,-0.0,,,,,,
5.999999999999998,0.1994624079724757,33.54806859084829,52.28449883152578,37.07944703582652,135.0,0,-0.0,,,,,,
6.999999999999998,0.22566140441903804,34.472746689323,52.66524863678008,39.25935487513094,135.0,0,-0.0,,,,,,
7.999999999999998,0.25044497642732216,35.39742478779772,53.045998442034374,41.43926271443536,135.0,0,-0.0,,,,,,
8.999999999999998,0.27395822400495307,36.32210288627243,53.42674824728867,43.61917055373978,135.0,0,-0.0,,,,,,
9.999999999999998,0.29632502299237534,37.24678098474715,53.80749805254297,45.7990783930442,135.0,0,0.0,,,,,,
10.999999999999998,0.3176519719754795,38.17145908322186,54.188247857797265,47.97898623234862,135.0,0,0.0,,,,,,
11.999999999999998,0.3380314624821483,39.09613718169658,54.56899766305156,50.15889407165304,135.0,0,0.0,,,,,,
12.999999999999998,0.35754409621334277,40.02081528017129,54.94974746830586,52.33880191095746,135.0,0,0.0,,,,,,
13.999999999999998,0.376260609155744,40.945493378646006,55.330497273560155,54.51870975026188,135.0,0,0.0,,,,,,
14.999999999999998,0.3942434185599741,41.87017147712072,55.71124707881445,56.6986175895663,135.0,0,0.0,,,,,,
15.999999999999998,0.4115478781422719,42.794849575595435,56.09199688406875,58.87852542887072,135.0,0,0.0,,,,,,
16.999999999999996,0.428223305147653,43.71952767407015,56.472746689323046,61.058433268175136,135.0,0,0.0,,,,,,
17.999999999999996,0.44431382728747554,44.644205772544865,56.85349649457734,63.238341107479556,135.0,0,0.0,,,,,,
18.38477631085024,0.45037581787982983,45.0,57.0,63.70884067651785,135.0,0,0.0,,,,,,
19.38477631085024,0.46592302492623544,45.963684065252714,57.2670449819375,64.93162793178996,135.0,0,0.0,,,,,,
20.38477631085024,0.481180179329673,46.92736813050543,57.534089963875005,66.15441518706207,135.0,0,0.0,,,,,,
21.38477631085024,0.4961579054705395,47.89105219575814,57.80113494581251,67.37720244233418,135.0,0,0.0,,,,,,
22.38477631085024,0.5108662544849956,48.854736261010856,58.06817992775001,68.59998969760629,135.0,0,0.0,,,,,,
23.38477631085024,0.5253147447759747,49.81842032626357,58.33522490968751,69.8227769528784,135.0,0,0.0,,,,,,
24.38477631085024,0.5395123990076929,50.782104391516285,58.60226989162501,71.04556420815051,135.0,0,0.0,,,,,,
25.38477631085024,0.5534677779437016,51.745788456769,58.869314873562516,72.26835146342262,135.0,0,-0.0,,,,,,
26.38477631085024,0.5671890114462415,52.70947252202171,59.13635985550002,73.49113871869473,135.0,0,-0.0,,,,,,
27.38477631085024,0.5806838269179494,53.67315658727443,59.40340483743752,74.71392597396684,135.0,0,-0.0,,,,,,
28.38477631085024,0.5939595754350353,54.63684065252714,59.67044981937502,75.93671322923895,135.0,0,-0.0,,,,,,
29.38477631085024,0.6070232557931889,55.600524717779855,59.937494801312525,77.15950048451106,135.0,0,-0.0,,,,,,
30.38477631085024,0.6198815366631244,56.56420878303257,60.20453978325003,78.38228773978317,135.0,0,-0.0,,,,,,
31.38477631085024,0.632540777031335,57.52789284828528,60.47158476518753,79.60507499505528,135.0,0,-0.0,,,,,,
32.384776310850235,0.6450070450828947,58.491576913538,60.73862974712503,80.82786225032739,135.0,0,-0.0,,,,,,
33.384776310850235,0.6572861356666606,59.45526097879071,61.005674729062534,82.0506495055995,135.0,0,0.0,,,,,,
34.384776310850235,0.6693835864686954,60.418945044043426,61.272719711000036,83.2734367608716,135.0,0,0.0,,,,,,
35.384776310850235,0.6813046930068927,61.38262910929614,61.53976469293754,84.49622401614371,135.0,0,0.0,,,,,,
36.384776310850235,0.6930545225484213,62.346313174548854,61.80680967487504,85.71901127141582,135.0,0,0.0,,,,,,
37.384776310850235,0.7046379270415349,63.30999723980157,62.07385465681254,86.94179852668793,135.0,0,0.0,,,,,,
38.384776310850235,0.7160595551443386,64.27368130505428,62.340899638750045,88.16458578196004,135.0,0,0.0,,,,,,
39.38477631085024,0.7273238634251427,65.237365370307,62.60794462068755,89.38737303723217,135.0,0,0.0,,,,,,
40.38477631085025,0.738435126801937,66.20104943555972,62.87498960262505,90.61016029250429,135.0,0,0.0,,,,,,
41.384776310850256,0.7493974482821812,67.16473350081245,63.14203458456255,91.83294754777641,135.0,0,0.0,,,,,,
42.38477631085026,0.76021476805844,68.12841756606517,63.409079566500054,93.05573480304854,135.0,0,0.0,,,,,,
43.36184179100624,0.7707872759578719,69.07,63.67,91.7756201507706,135.0,0,0.0,,,,,,
44.361841791006235,0.7817617501283038,70.04541627312864,63.890370356708466,90.46545754828713,135.0,0,0.0,,,,,,
45.36184179100623,0.7928963210073886,71.02083254625728,64.11074071341693,89.15529494580366,135.0,0,0.0,,,,,,
46.36184179100622,0.8041957287581567,71.99624881938593,64.33111107012539,87.84513234332019,135.0,0,0.0,,,,,,
47.36184179100621,0.8156649272280302,72.97166509251457,64.55148142683385,86.53496974083671,135.0,0,0.0,,,,,,
48.361841791006206,0.82730909698849,73.94708136564321,64.7718517835423,85.22480713835324,135.0,0,0.0,,,,,,
49.3618417910062,0.8391336593848028,74.92249763877186,64.99222214025076,83.91464453586977,135.0,0,0.0,,,,,,
50.36184179100619,0.8511442916911718,75.8979139119005,65.21259249695922,82.6044819333863,135.0,0,0.0,,,,,,
51.361841791006185,0.863346943477349,76.87333018502915,65.43296285366768,81.29431933090282,135.0,0,0.0,,,,,,
52.36184179100618,0.8757478543048071,77.84874645815779,65.65333321037613,79.98415672841935,135.0,0,0.0,,,,,,
53.36184179100617,0.8883535728842196,78.82416273128644,65.87370356708459,78.67399412593588,135.0,0,-0.0,,,,,,
54.361841791006164,0.9011709778414888,79.79957900441508,66.09407392379305,77.3638315234524,135.0,0,-0.0,,,,,,
55.36184179100616,0.9142073002571609,80.77499527754372,66.3144442805015,76.05366892096893,135.0,0,-0.0,,,,,,
56.36184179100615,0.9274701481641203,81.75041155067237,66.53481463720996,74.74350631848546,135.0,0,-0.0,,,,,,
57.36184179100614,0.9409675332113426,82.72582782380101,66.75518499391842,73.43334371600199,135.0,0,-0.0,,,,,,
58.361841791006135,0.9547078997276663,83.70124409692966,66.97555535062688,72.12318111351851,135.0,0,-0.0,,,,,,
59.36184179100613,0.9687001564495697,84.6766603700583,67.19592570733533,70.81301851103504,135.0,0,-0.0,,,,,,
60.36184179100612,0.982953711211445,85.65207664318694,67.41629606404379,69.50285590855157,135.0,0,0.0,,,,,,
61.361841791006114,0.9974785089366255,86.62749291631559,67.63666642075225,68.1926933060681,135.0,0,0.0,,,,,,
62.36184179100611,1.0122850733133544,87.60290918944423,67.8570367774607,66.88253070358462,135.0,0,0.0,,,,,,
63.3618417910061,1.0273845525930836,88.57832546257288,68.07740713416916,65.57236810110115,135.0,0,0.0,,,,,,
64.3618417910061,1.0427887700102874,89.55374173570152,68.29777749087762,64.26220549861766,135.0,0,0.0,,,,,,
65.3618417910061,1.058510279394943,90.52915800883017,68.51814784758608,62.952042896134174,135.0,0,0.0,,,,,,
66.3618417910061,1.074562426632923,91.50457428195881,68.73851820429454,61.641880293650686,135.0,0,0.0,,,,,,
67.3618417910061,1.0909594177280693,92.47999055508745,68.958888561003,60.3317176911672,135.0,0,0.0,,,,,,
68.3618417910061,1.1075801394993068,93.4554068282161,69.17925891771145,60.0,135.0,0,0.0,,,,,,
68.5920954560014,1.1114177005825618,93.68,69.23,60.0,135.0,0,0.0,,,,,,
