Distance (in),Time (s),X (in),Y (in),Velocity (in/s),Orientation (deg),Touch,Rotational Velocity (deg/s),Way X (in),Way Y (in),Way Velocity (in/s),Way Orientation (deg),Way Turn Radius (in),Touch this Point
0.0,0.0,262.0,225.0,24.0,315.0,0,0.0,262.0,225.0,24.0,315.0,3.0,0
0.9999999999999847,0.04131836840628775,261.7775519614524,225.97494454721604,24.404621894402133,315.0,0,0.0,242.12,312.13,60.0,315.0,3.0,0
1.9999999999999694,0.0819573219254876,261.5551039229048,226.94988909443208,24.809243788804267,315.0,0,0.0,215.92,305.0,84.0,315.0,3.0,0
2.999999999999954,0.12193884288869411,261.33265588435717,227.92483364164812,25.2138656832064,315.0,0,0.0,221.48,259.74,60.0,315.0,3.0,0
3.9999999999999387,0.16128386376030712,261.11020784580955,228.89977818886416,25.618487577608533,315.0,0,0.0,190.0,235.0,60.0,315.0,3.0,0
4.999999999999924,0.2000123329452995,260.88775980726194,229.8747227360802,26.023109472010667,315.0,0,0.0,,,,,,
5.9999999999999085,0.23814327551991016,260.66531176871433,230.84966728329624,26.4277313664128,315.0,0,0.0,,,,,,
6.999999999999893,0.2756948493485692,260.4428637301667,231.82461183051228,26.832353260814934,315.0,0,0.0,,,,,,
7.999999999999878,0.312684397001374,260.2204156916191,232.79955637772832,27.236975155217067,315.0,0,0.0,,,,,,
8.999999999999863,0.34912849384366973,259.9979676530715,233.77450092494436,27.6415970496192,315.0,0,0.0,,,,,,
9.999999999999847,0.3850429926314901,259.7755196145239,234.7494454721604,28.046218944021334,315.0,0,0.0,,,,,,
10.999999999999831,0.42044306491315286,259.5530715759763,235.72439001937644,28.450840838423467,315.0,0,0.0,,,,,,
11.999999999999815,0.45534323950761724,259.33062353742866,236.69933456659248,28.8554627328256,315.0,0,0.0,,,,,,
12.9999999999998,0.48975743830383645,259.10817549888105,237.67427911380852,29.260084627227734,315.0,0,0.0,,,,,,
13.999999999999783,0.5236990096018578,258.88572746033344,238.64922366102456,29.664706521629867,315.0,0,0.0,,,,,,
14.999999999999767,0.5571807591954883,258.66327942178583,239.6241682082406,30.069328416032,315.0,0,0.0,,,,,,
15.999999999999751,0.5902149793776483,258.4408313832382,240.59911275545664,30.473950310434134,315.0,0,0.0,,,,,,
16.999999999999737,0.6228134760328132,258.2183833446906,241.57405730267268,30.878572204836267,315.0,0,0.0,,,,,,
17.999999999999723,0.6549875939659594,257.995935306143,242.54900184988873,31.2831940992384,315.0,0,0.0,,,,,,
18.99999999999971,0.686748240603993,257.7734872675954,243.52394639710477,31.687815993640534,315.0,0,0.0,,,,,,
19.999999999999694,0.7181059081935594,257.5510392290478,244.4988909443208,32.09243788804267,315.0,0,0.0,,,,,,
20.99999999999968,0.749070694608268,257.32859119050016,245.47383549153685,32.4970597824448,315.0,0,0.0,,,,,,
21.999999999999666,0.7796523228685748,257.10614315195255,246.4487800387529,32.901681676846934,315.0,0,0.0,,,,,,
22.999999999999652,0.80986015946873,256.88369511340494,247.42372458596893,33.30630357124907,315.0,0,-0.0,,,,,,
23.999999999999638,0.8397032315972234,256.66124707485733,248.39866913318497,33.7109254656512,315.0,0,-0.0,,,,,,
24.999999999999623,0.8691902433299347,256.4387990363097,249.373613680401,34.115547360053334,315.0,0,-0.0,,,,,,
25.99999999999961,0.8983295908686649,256.2163509977621,250.34855822761705,34.52016925445547,315.0,0,-0.0,,,,,,
26.9999999999996,0.9271293768917924,255.99390295921447,251.3235027748331,34.9247911488576,315.0,0,-0.0,,,,,,
27.999999999999588,0.9555974240784173,255.77145492066683,252.29844732204913,35.329413043259734,315.0,0,-0.0,,,,,,
28.999999999999577,0.9837412878624673,255.5490068821192,253.27339186926517,35.73403493766187,315.0,0,-0.0,,,,,,
29.999999999999567,1.0115682684687846,255.32655884357155,254.2483364164812,36.138656832064,315.0,0,-0.0,,,,,,
30.999999999999556,1.0390854222791615,255.1041108050239,255.22328096369725,36.543278726466134,315.0,0,-0.0,,,,,,
31.999999999999545,1.0662995725725941,254.88166276647627,256.1982255109133,36.94790062086827,315.0,0,-0.0,,,,,,
32.99999999999957,1.093217319680649,254.65921472792863,257.17317005812936,37.352522515270415,315.0,0,-0.0,,,,,,
33.99999999999959,1.1198450505957473,254.436766689381,258.1481146053454,37.75714440967256,315.0,0,-0.0,,,,,,
34.99999999999961,1.1461889480673675,254.21431865083335,259.1230591525615,38.16176630407471,315.0,0,-0.0,,,,,,
35.99999999999963,1.1722549992185591,253.9918706122857,260.09800369977756,38.56638819847686,315.0,0,-0.0,,,,,,
36.99999999999965,1.1980490037128138,253.76942257373807,261.07294824699363,38.971010092879006,315.0,0,-0.0,,,,,,
37.99999999999967,1.2235765814991566,253.54697453519043,262.0478927942097,39.37563198728115,315.0,0,-0.0,,,,,,
38.999999999999694,1.2488431801613316,253.3245264966428,263.02283734142577,39.7802538816833,315.0,0,-0.0,,,,,,
39.999999999999716,1.2738540818951192,253.10207845809515,263.99778188864184,40.18487577608545,315.0,0,-0.0,,,,,,
40.99999999999974,1.2986144101361412,252.8796304195475,264.9727264358579,40.589497670487596,315.0,0,-0.0,,,,,,
41.99999999999976,1.3231291358589519,252.65718238099987,265.947670983074,40.99411956488974,315.0,0,-0.0,,,,,,
42.99999999999978,1.3474030835667885,252.43473434245223,266.92261553029005,41.39874145929189,315.0,0,-0.0,,,,,,
43.9999999999998,1.3714409369900338,252.2122863039046,267.8975600775061,41.80336335369404,315.0,0,-0.0,,,,,,
44.99999999999982,1.395247244510223,251.98983826535695,268.8725046247222,42.207985248096186,315.0,0,-0.0,,,,,,
45.999999999999844,1.4188264243253101,251.7673902268093,269.84744917193825,42.612607142498334,315.0,0,-0.0,,,,,,
46.999999999999865,1.442182769370861,251.54494218826167,270.8223937191543,43.01722903690048,315.0,0,-0.0,,,,,,
47.999999999999886,1.4653204520108862,251.32249414971403,271.7973382663704,43.42185093130263,315.0,0,0.0,,,,,,
48.99999999999991,1.4882435285111315,251.1000461111664,272.77228281358646,43.826472825704776,315.0,0,0.0,,,,,,
49.99999999999993,1.5109559433068225,250.87759807261875,273.7472273608025,44.231094720106924,315.0,0,0.0,,,,,,
50.99999999999995,1.5334615330760932,250.6551500340711,274.7221719080186,44.63571661450907,315.0,0,0.0,,,,,,
51.99999999999997,1.5557640306296203,250.43270199552347,275.69711645523466,45.04033850891122,315.0,0,0.0,,,,,,
52.99999999999999,1.5778670686263245,250.21025395697583,276.67206100245073,45.44496040331337,315.0,0,0.0,,,,,,
54.000000000000014,1.5997741831243908,249.9878059184282,277.6470055496668,45.849582297715514,315.0,0,0.0,,,,,,
55.000000000000036,1.621488816976288,249.76535787988055,278.62195009688287,46.25420419211766,315.0,0,0.0,,,,,,
56.00000000000006,1.6430143230759409,249.54290984133291,279.59689464409894,46.65882608651981,315.0,0,0.0,,,,,,
57.00000000000008,1.6643539674657137,249.32046180278527,280.571839191315,47.06344798092196,315.0,0,0.0,,,,,,
58.0000000000001,1.6855109323104065,249.09801376423763,281.5467837385311,47.468069875324105,315.0,0,0.0,,,,,,
59.00000000000012,1.706488318745035,248.87556572569,282.52172828574714,47.87269176972625,315.0,0,0.0,,,,,,
60.00000000000014,1.7272891496027714,248.65311768714236,283.4966728329632,48.2773136641284,315.0,0,0.0,,,,,,
61.00000000000016,1.7479163720290425,248.43066964859472,284.4716173801793,48.68193555853055,315.0,0,0.0,,,,,,
62.000000000000185,1.7683728599874438,248.20822161004708,285.44656192739535,49.086557452932695,315.0,0,0.0,,,,,,
63.000000000000206,1.7886614166627945,247.98577357149944,286.4215064746114,49.49117934733484,315.0,0,0.0,,,,,,
64.00000000000023,1.8087847767663607,247.7633255329518,287.3964510218275,49.89580124173699,315.0,0,0.0,,,,,,
65.00000000000024,1.828745608747986,247.54087749440416,288.37139556904356,50.30042313613914,315.0,0,0.0,,,,,,
66.00000000000026,1.8485465169196071,247.31842945585652,289.3463401162596,50.705045030541285,315.0,0,0.0,,,,,,
67.00000000000027,1.8681900434943763,247.09598141730888,290.3212846634757,51.10966692494343,315.0,0,0.0,,,,,,
68.00000000000028,1.8876786705453885,246.87353337876124,291.29622921069176,51.51428881934558,315.0,0,0.0,,,,,,
69.0000000000003,1.9070148218877834,246.6510853402136,292.27117375790783,51.91891071374773,315.0,0,0.0,,,,,,
70.00000000000031,1.9262008648877933,246.42863730166596,293.2461183051239,52.323532608149876,315.0,0,0.0,,,,,,
71.00000000000033,1.9452391122021127,246.20618926311832,294.22106285233997,52.72815450255202,315.0,0,0.0,,,,,,
72.00000000000034,1.964131823450785,245.98374122457068,295.19600739955604,53.13277639695417,315.0,0,0.0,,,,,,
73.00000000000036,1.982881206826635,245.76129318602304,296.1709519467721,53.53739829135632,315.0,0,0.0,,,,,,
74.00000000000037,2.00148942064411,245.5388451474754,297.1458964939882,53.942020185758466,315.0,0,0.0,,,,,,
75.00000000000038,2.0199585748302495,245.31639710892776,298.12084104120424,54.34664208016061,315.0,0,0.0,,,,,,
76.0000000000004,2.0382907323603567,245.09394907038012,299.0957855884203,54.75126397456276,315.0,0,0.0,,,,,,
77.00000000000041,2.056487910640818,244.87150103183248,300.0707301356364,55.15588586896491,315.0,0,0.0,,,,,,
78.00000000000043,2.0745520828413833,244.64905299328484,301.04567468285245,55.560507763367056,315.0,0,0.0,,,,,,
79.00000000000044,2.0924851791791137,244.4266049547372,302.0206192300685,55.965129657769204,315.0,0,0.0,,,,,,
80.00000000000045,2.110289088156079,244.20415691618956,302.9955637772846,56.36975155217135,315.0,0,0.0,,,,,,
81.00000000000047,2.127965657752797,243.98170887764192,303.97050832450066,56.7743734465735,315.0,0,0.0,,,,,,
82.00000000000048,2.1455166965792904,243.75926083909428,304.9454528717167,57.178995340975646,315.0,0,0.0,,,,,,
83.0000000000005,2.1629439749855695,243.53681280054664,305.9203974189328,57.583617235377794,315.0,0,0.0,,,,,,
84.00000000000051,2.1802492261332267,243.314364761999,306.89534196614886,57.98823912977994,315.0,0,0.0,,,,,,
85.00000000000053,2.197434147029783,243.09191672345136,307.87028651336493,58.39286102418209,315.0,0,0.0,,,,,,
86.00000000000054,2.2145003995273163,242.86946868490372,308.845231060581,58.79748291858424,315.0,0,0.0,,,,,,
86.98119898378151,2.231132021103891,242.56312564845373,309.77738200854566,59.19449751018715,315.0,0,0.0,,,,,,
87.97657577994202,2.247890370525537,241.9700094158529,310.57674932146267,59.597248755093545,315.0,0,0.0,,,,,,
88.9719525761025,2.264417818519234,241.1479913663061,311.1380525305698,60.85411149605379,315.0,0,0.0,,,,,,
89.967329372263,2.2806074025824903,240.1875642670762,311.3994999505219,62.11097423701407,315.0,0,0.0,,,,,,
90.96732937226298,2.296545607111478,239.22265611003223,311.13691234900574,63.373674699601104,315.0,0,0.0,,,,,,
91.96732937226297,2.312169380418022,238.25774795298827,310.8743247474896,64.63637516218813,315.0,0,0.0,,,,,,
92.96732937226295,2.3274908887741237,237.2928397959443,310.61173714597345,65.89907562477516,315.0,0,0.0,,,,,,
93.96732937226294,2.342521605730053,236.32793163890034,310.3491495444573,67.1617760873622,315.0,0,0.0,,,,,,
94.96732937226292,2.357272363724301,235.36302348185637,310.08656194294116,68.42447654994923,315.0,0,0.0,,,,,,
95.96732937226291,2.3717534009750434,234.3981153248124,309.823974341425,69.68717701253627,315.0,0,-0.0,,,,,,
96.9673293722629,2.3859744041614794,233.43320716776844,309.56138673990887,70.9498774751233,315.0,0,-0.0,,,,,,
97.96732937226288,2.3999445473406573,232.46829901072448,309.2987991383927,72.21257793771034,315.0,0,-0.0,,,,,,
98.96732937226287,2.4136725274913147,231.50339085368051,309.0362115368766,73.47527840029737,315.0,0,-0.0,,,,,,
99.96732937226285,2.427166597029565,230.53848269663655,308.77362393536043,74.7379788628844,315.0,0,-0.0,,,,,,
100.96732937226284,2.4404345936008287,229.57357453959258,308.5110363338443,76.00067932547144,315.0,0,-0.0,,,,,,
101.96732937226282,2.4534839674172852,228.60866638254862,308.24844873232814,77.26337978805847,315.0,0,-0.0,,,,,,
102.96732937226281,2.4663218063795815,227.64375822550466,307.985861130812,78.5260802506455,315.0,0,-0.0,,,,,,
103.9673293722628,2.478954859194859,226.6788500684607,307.72327352929585,79.78878071323254,315.0,0,0.0,,,,,,
104.96732937226278,2.4913895566798683,225.71394191141673,307.4606859277797,81.05148117581957,315.0,0,0.0,,,,,,
105.96732937226277,2.503632031417502,224.74903375437276,307.19809832626356,82.31418163840661,315.0,0,0.0,,,,,,
106.96732937226275,2.51568813591715,223.7841255973288,306.9355107247474,83.57688210099364,315.0,0,0.0,,,,,,
107.96732937226274,2.5276229563704544,222.81921744028483,306.67292312323127,84.0,315.0,0,0.0,,,,,,
108.96732937226272,2.5395277182752163,221.85430928324087,306.4103355217151,84.0,315.0,0,0.0,,,,,,
109.96732937226271,2.551432480179978,220.8894011261969,306.147747920199,84.0,315.0,0,0.0,,,,,,
110.9673293722627,2.56333724208474,219.92449296915294,305.88516031868284,84.0,315.0,0,0.0,,,,,,
111.96732937226268,2.575242003989502,218.95958481210897,305.6225727171667,84.0,315.0,0,0.0,,,,,,
113.00523852399074,2.587598065319598,217.92915673075942,305.49818069006227,84.0,315.0,0,0.0,,,,,,
114.00061532015124,2.5994477890834133,217.11294969822436,304.92846054264334,84.0,315.0,0,0.0,,,,,,
114.99599211631173,2.6113352250081965,216.5280786040928,304.1230409193512,83.4670303097586,315.0,0,0.0,,,,,,
115.99599211631175,2.6233545557851112,216.65000780709457,303.1305021193764,82.93158514738666,315.0,0,0.0,,,,,,
116.99599211631178,2.6354517403220568,216.77193701009634,302.1379633194016,82.39613998501471,315.0,0,0.0,,,,,,
117.99599211631181,2.647627793771169,216.8938662130981,301.1454245194268,81.86069482264277,315.0,0,0.0,,,,,,
118.99599211631184,2.659883751270067,217.01579541609988,300.152885719452,81.32524966027083,315.0,0,0.0,,,,,,
119.99599211631187,2.6722206684699263,217.13772461910165,299.1603469194772,80.78980449789888,315.0,0,0.0,,,,,,
120.9959921163119,2.6846396220811153,217.25965382210342,298.1678081195024,80.25435933552694,315.0,0,0.0,,,,,,
121.99599211631192,2.69714171043709,217.3815830251052,297.1752693195276,79.718914173155,315.0,0,0.0,,,,,,
122.99599211631195,2.7097280540772917,217.50351222810696,296.1827305195528,79.18346901078306,315.0,0,0.0,,,,,,
123.99599211631198,2.7223997963498197,217.62544143110873,295.190191719578,78.64802384841111,315.0,0,0.0,,,,,,
124.99599211631201,2.735158104034689,217.7473706341105,294.19765291960323,78.11257868603917,315.0,0,0.0,,,,,,
125.99599211631204,2.748004167988524,217.86929983711227,293.20511411962843,77.57713352366723,315.0,0,0.0,,,,,,
126.99599211631207,2.7609392038115756,217.99122904011404,292.21257531965364,77.04168836129529,315.0,0,0.0,,,,,,
127.9959921163121,2.7739644525380016,218.1131582431158,291.22003651967884,76.50624319892334,315.0,0,0.0,,,,,,
128.99599211631212,2.7870811813503833,218.23508744611757,290.22749771970405,75.9707980365514,315.0,0,0.0,,,,,,
129.99599211631215,2.8002906843195148,218.35701664911934,289.23495891972925,75.43535287417946,315.0,0,0.0,,,,,,
130.99599211631218,2.8135942831705383,218.47894585212111,288.24242011975446,74.89990771180751,315.0,0,0.0,,,,,,
131.9959921163122,2.826993328076564,218.60087505512288,287.24988131977966,74.36446254943557,315.0,0,-0.0,,,,,,
132.99599211631224,2.840489198480964,218.72280425812465,286.25734251980487,73.82901738706363,315.0,0,-0.0,,,,,,
133.99599211631227,2.854083303949593,218.84473346112642,285.26480371983007,73.29357222469169,315.0,0,-0.0,,,,,,
134.9959921163123,2.8677770850542537,218.9666626641282,284.2722649198553,72.75812706231974,315.0,0,-0.0,,,,,,
135.99599211631232,2.881572014288788,219.08859186712996,283.2797261198805,72.2226818999478,315.0,0,-0.0,,,,,,
136.99599211631235,2.8954695970192574,219.21052107013173,282.2871873199057,71.68723673757586,315.0,0,-0.0,,,,,,
137.99599211631238,2.909471372469736,219.3324502731335,281.2946485199309,71.15179157520392,315.0,0,-0.0,,,,,,
138.9959921163124,2.9235789147453413,219.45437947613527,280.3021097199561,70.61634641283197,315.0,0,-0.0,,,,,,
139.99599211631244,2.9377938338941956,219.57630867913704,279.3095709199813,70.08090125046003,315.0,0,-0.0,,,,,,
140.99599211631246,2.9521177770101126,219.6982378821388,278.3170321200065,69.54545608808809,315.0,0,-0.0,,,,,,
141.9959921163125,2.9665524293778955,219.82016708514058,277.3244933200317,69.01001092571614,315.0,0,-0.0,,,,,,
142.99599211631252,2.981099515663242,219.94209628814235,276.3319545200569,68.4745657633442,315.0,0,-0.0,,,,,,
143.99599211631255,2.995760801149353,220.06402549114412,275.3394157200821,67.93912060097226,315.0,0,-0.0,,,,,,
144.99599211631258,3.0105380930224666,220.1859546941459,274.3468769201073,67.40367543860032,315.0,0,0.0,,,,,,
145.9959921163126,3.0254332417086536,220.30788389714766,273.3543381201325,66.86823027622837,315.0,0,0.0,,,,,,
146.99599211631264,3.040448142264351,220.42981310014943,272.36179932015773,66.33278511385643,315.0,0,0.0,,,,,,
147.99599211631266,3.0555847358232464,220.5517423031512,271.36926052018293,65.79733995148449,315.0,0,0.0,,,,,,
148.9959921163127,3.0708450111022727,220.67367150615297,270.37672172020814,65.26189478911255,315.0,0,0.0,,,,,,
149.99599211631272,3.0862310059696414,220.79560070915474,269.38418292023334,64.7264496267406,315.0,0,0.0,,,,,,
150.99599211631275,3.101744809077998,220.9175299121565,268.39164412025855,64.19100446436866,315.0,0,0.0,,,,,,
151.99599211631278,3.1173885615659804,221.03945911515828,267.39910532028375,63.65555930199671,315.0,0,0.0,,,,,,
152.9959921163128,3.133164458831642,221.16138831816005,266.40656652030896,63.12011413962476,315.0,0,0.0,,,,,,
153.99599211631283,3.1490747523814147,221.28331752116182,265.41402772033416,62.58466897725281,315.0,0,0.0,,,,,,
154.99599211631286,3.165121751758508,221.4052467241636,264.42148892035937,62.04922381488086,315.0,0,0.0,,,,,,
155.9959921163129,3.1813078265548684,221.52717592716536,263.42895012038457,61.51377865250891,315.0,0,0.0,,,,,,
156.99599211631292,3.1976354085110925,221.64910513016713,262.4364113204098,60.97833349013696,315.0,0,0.0,,,,,,
157.99599211631295,3.214106993708938,221.7710343331689,261.443872520435,60.44288832776501,315.0,0,0.0,,,,,,
158.99599211631298,3.230712374298595,221.89296353617067,260.4513337204602,60.0,315.0,0,0.0,,,,,,
159.81850931617586,3.2444209942963096,221.48,259.74,60.0,315.0,0,0.0,,,,,,
160.81850931617586,3.261087660962976,220.69375100053395,259.1220902081706,60.0,315.0,0,0.0,,,,,,
161.81850931617586,3.277754327629643,219.9075020010679,258.5041804163412,60.0,315.0,0,0.0,,,,,,
162.81850931617586,3.2944209942963094,219.12125300160187,257.88627062451184,60.0,315.0,0,0.0,,,,,,
163.81850931617586,3.311087660962976,218.33500400213583,257.26836083268245,60.0,315.0,0,0.0,,,,,,
164.81850931617586,3.3277543276296426,217.5487550026698,256.65045104085306,60.0,315.0,0,0.0,,,,,,
165.81850931617586,3.3444209942963092,216.76250600320375,256.03254124902367,60.0,315.0,0,0.0,,,,,,
166.81850931617586,3.361087660962976,215.97625700373771,255.41463145719425,60.0,315.0,0,0.0,,,,,,
167.81850931617586,3.3777543276296425,215.19000800427168,254.79672166536483,60.0,315.0,0,0.0,,,,,,
168.81850931617586,3.394420994296309,214.40375900480564,254.1788118735354,60.0,315.0,0,0.0,,,,,,
169.81850931617586,3.4110876609629757,213.6175100053396,253.560902081706,60.0,315.0,0,0.0,,,,,,
170.81850931617586,3.4277543276296423,212.83126100587356,252.94299228987657,60.0,315.0,0,0.0,,,,,,
171.81850931617586,3.444420994296309,212.04501200640752,252.32508249804715,60.0,315.0,0,0.0,,,,,,
172.81850931617586,3.4610876609629755,211.25876300694148,251.70717270621773,60.0,315.0,0,0.0,,,,,,
173.81850931617586,3.477754327629642,210.47251400747544,251.0892629143883,60.0,315.0,0,-0.0,,,,,,
174.81850931617586,3.4944209942963087,209.6862650080094,250.4713531225589,60.0,315.0,0,-0.0,,,,,,
175.81850931617586,3.5110876609629753,208.90001600854336,249.85344333072948,60.0,315.0,0,-0.0,,,,,,
176.81850931617586,3.527754327629642,208.11376700907732,249.23553353890006,60.0,315.0,0,-0.0,,,,,,
177.81850931617586,3.5444209942963085,207.32751800961128,248.61762374707064,60.0,315.0,0,-0.0,,,,,,
178.81850931617586,3.561087660962975,206.54126901014524,247.99971395524122,60.0,315.0,0,-0.0,,,,,,
179.81850931617586,3.5777543276296417,205.7550200106792,247.3818041634118,60.0,315.0,0,-0.0,,,,,,
180.81850931617586,3.5944209942963083,204.96877101121316,246.76389437158238,60.0,315.0,0,-0.0,,,,,,
