Distance (in),Time (s),X (in),Y (in),Velocity (in/s),Orientation (deg),Touch,Way X (in),Way Y (in),Way Velocity (in/s),Way Orientation (deg),Way Turn Radius (in),Touch this Point
0.0,0.0,302.0,72.0,0.0,0.0,0,302.0,72.0,0.0,0.0,3.0,0.0
1.000000000000006,0.16666666666666766,301.83336795695544,71.01398085098168,12.0,0.0,0,294.62,28.33,60.0,0.0,3.0,0.0
2.000000000000012,0.2500000000000015,301.6667359139109,70.02796170196336,12.0,0.0,0,200.07,28.0,60.0,0.0,3.0,0
3.0000000000000178,0.3333333333333353,301.5001038708663,69.04194255294505,12.0,0.0,0,202.5,83.12,60.0,0.0,5.0,0.0
4.000000000000024,0.4166666666666692,301.33347182782177,68.05592340392673,12.0,0.0,0,,,,,,
5.00000000000003,0.500000000000003,301.1668397847772,67.06990425490841,12.0,0.0,0,,,,,,
6.000000000000036,0.5833333333333368,301.00020774173265,66.08388510589009,12.0,0.0,0,,,,,,
7.000000000000043,0.6666666666666706,300.8335756986881,65.09786595687177,12.0,0.0,0,,,,,,
8.000000000000048,0.7500000000000044,300.66694365564354,64.11184680785345,12.0,0.0,0,,,,,,
9.000000000000053,0.8323875887051487,300.500311612599,63.125827658835135,12.27550109711039,0.0,0,,,,,,
10.000000000000059,0.909563128307002,300.3336795695544,62.13980850981682,13.639445663455987,0.0,0,,,,,,
11.000000000000064,0.9793886165182026,300.16704752650986,61.1537893607985,15.003390229801585,0.0,0,,,,,,
12.00000000000007,1.0431423231458206,300.0004154834653,60.16777021178018,16.367334796147183,0.0,0,,,,,,
13.000000000000075,1.101795733243229,299.83378344042075,59.18175106276186,17.73127936249278,0.0,0,,,,,,
14.00000000000008,1.1561044462963852,299.6671513973762,58.19573191374354,19.09522392883838,0.0,0,,,,,,
15.000000000000085,1.2066677308631166,299.50051935433163,57.209712764725225,20.459168495183977,0.0,0,,,,,,
16.000000000000092,1.2539688680384462,299.33388731128707,56.22369361570691,21.82311306152958,0.0,0,,,,,,
17.0000000000001,1.2984032696273922,299.1672552682425,55.23767446668859,23.18705762787518,0.0,0,,,,,,
18.000000000000107,1.3402985625541126,299.00062322519796,54.25165531767027,24.551002194220782,0.0,0,,,,,,
19.000000000000114,1.3799292450523617,298.8339911821534,53.26563616865195,25.914946760566384,0.0,0,,,,,,
20.00000000000012,1.4175275848583928,298.66735913910884,52.27961701963363,27.278891326911985,0.0,0,,,,,,
21.000000000000128,1.4532918593080322,298.5007270960643,51.293597870615315,28.642835893257587,0.0,0,,,,,,
22.000000000000135,1.487392679132107,298.3340950530197,50.307578721597,30.00678045960319,0.0,0,,,,,,
23.000000000000142,1.5199779069640007,298.16746300997517,49.32155957257868,31.37072502594879,0.0,0,,,,,,
24.00000000000015,1.5511765293562394,298.0008309669306,48.33554042356036,32.73466959229439,0.0,0,,,,,,
25.000000000000156,1.5811017385896111,297.83419892388605,47.34952127454204,34.09861415863999,0.0,0,,,,,,
26.000000000000163,1.6098534102059878,297.6675668808415,46.36350212552372,35.46255872498559,0.0,0,,,,,,
27.00000000000017,1.637520113082124,297.50093483779693,45.377482976505405,36.82650329133119,0.0,0,,,,,,
28.000000000000178,1.6641807540354916,297.3343027947524,44.39146382748709,38.190447857676794,0.0,0,,,,,,
29.000000000000185,1.689905933902776,297.1676707517078,43.40544467846877,39.554392424022396,0.0,0,,,,,,
30.000000000000192,1.7147590737745593,297.00103870866326,42.41942552945045,40.918336990368,0.0,0,,,,,,
31.0000000000002,1.7387973566013661,296.8344066656187,41.43340638043213,42.2822815567136,0.0,0,,,,,,
32.000000000000206,1.762072519338433,296.66777462257414,40.44738723141381,43.6462261230592,0.0,0,,,,,,
33.00000000000021,1.7846315232220518,296.5011425795296,39.461368082395495,45.0101706894048,0.0,0,,,,,,
34.00000000000022,1.806517124004667,296.334510536485,38.47534893337718,46.374115255750404,0.0,0,,,,,,
35.00000000000023,1.8277683595472063,296.16787849344047,37.48932978435886,47.738059822096005,0.0,0,,,,,,
36.000000000000234,1.8484209687364346,296.0012464503959,36.50331063534054,49.10200438844161,0.0,0,,,,,,
37.00000000000024,1.868507753016369,295.83461440735135,35.51729148632222,50.46594895478721,0.0,0,,,,,,
38.00000000000025,1.888058889715505,295.6679823643068,34.5312723373039,51.82989352113281,0.0,0,,,,,,
39.000000000000256,1.9071022046821962,295.50135032126224,33.545253188285585,53.19383808747841,0.0,0,,,,,,
40.00000000000026,1.9256634104092243,295.3347182782177,32.55923403926727,54.55778265382401,0.0,0,,,,,,
41.00000000000026,1.9437663147602762,295.1680862351731,31.573214890248952,55.9217272201696,0.0,0,,,,,,
41.99930398073543,1.9614208562392133,294.99235966375073,30.589482905402836,57.284722454820844,0.0,0,,,,,,
42.99468077689592,1.9785933195591554,294.5928150823969,29.67781460286868,58.64236122741043,0.0,0,,,,,,
43.99005757305642,1.9954333851996644,293.91696962105783,28.94705617580668,59.57294949752076,0.0,0,,,,,,
44.99005757305641,2.0121595762688362,292.9169757118089,28.943565980248223,60.0,0.0,0,,,,,,
45.990057573056404,2.028826242935503,291.91698180256,28.940075784689768,60.0,0.0,0,,,,,,
46.9900575730564,2.0454929096021695,290.91698789331105,28.93658558913131,60.0,0.0,0,,,,,,
47.99005757305639,2.062159576268836,289.9169939840621,28.933095393572856,60.0,0.0,0,,,,,,
48.99005757305638,2.0788262429355027,288.9170000748132,28.9296051980144,60.0,0.0,0,,,,,,
49.990057573056376,2.0954929096021693,287.91700616556426,28.926115002455944,60.0,0.0,0,,,,,,
50.99005757305637,2.112159576268836,286.91701225631533,28.92262480689749,60.0,0.0,0,,,,,,
51.99005757305636,2.1288262429355025,285.9170183470664,28.919134611339032,60.0,0.0,0,,,,,,
52.990057573056355,2.145492909602169,284.9170244378175,28.915644415780577,60.0,0.0,0,,,,,,
53.99005757305635,2.1621595762688357,283.91703052856855,28.91215422022212,60.0,0.0,0,,,,,,
54.99005757305634,2.1788262429355023,282.9170366193196,28.908664024663665,60.0,0.0,0,,,,,,
55.99005757305633,2.195492909602169,281.9170427100707,28.90517382910521,60.0,0.0,0,,,,,,
56.990057573056326,2.2121595762688355,280.91704880082176,28.901683633546753,60.0,0.0,0,,,,,,
57.99005757305632,2.228826242935502,279.91705489157283,28.898193437988297,60.0,0.0,0,,,,,,
58.99005757305631,2.2454929096021687,278.9170609823239,28.89470324242984,60.0,0.0,0,,,,,,
59.990057573056305,2.2621595762688353,277.917067073075,28.891213046871385,60.0,0.0,0,,,,,,
60.9900575730563,2.278826242935502,276.91707316382605,28.88772285131293,60.0,0.0,0,,,,,,
61.99005757305629,2.2954929096021686,275.9170792545771,28.884232655754474,60.0,0.0,0,,,,,,
62.99005757305628,2.312159576268835,274.9170853453282,28.880742460196018,60.0,0.0,0,,,,,,
63.990057573056276,2.328826242935502,273.91709143607926,28.877252264637562,60.0,0.0,0,,,,,,
64.99005757305628,2.3454929096021684,272.91709752683033,28.873762069079106,60.0,0.0,0,,,,,,
65.99005757305628,2.362159576268835,271.9171036175814,28.87027187352065,60.0,0.0,0,,,,,,
66.99005757305628,2.3788262429355016,270.9171097083325,28.866781677962194,60.0,0.0,0,,,,,,
67.99005757305628,2.395492909602168,269.91711579908355,28.86329148240374,60.0,0.0,0,,,,,,
68.99005757305628,2.412159576268835,268.9171218898346,28.859801286845283,60.0,0.0,0,,,,,,
69.99005757305628,2.4288262429355014,267.9171279805857,28.856311091286827,60.0,0.0,0,,,,,,
70.99005757305628,2.445492909602168,266.91713407133676,28.85282089572837,60.0,0.0,0,,,,,,
71.99005757305628,2.4621595762688346,265.91714016208783,28.849330700169915,60.0,0.0,0,,,,,,
72.99005757305628,2.4788262429355012,264.9171462528389,28.84584050461146,60.0,0.0,0,,,,,,
73.99005757305628,2.495492909602168,263.91715234359,28.842350309053003,60.0,0.0,0,,,,,,
74.99005757305628,2.5121595762688345,262.91715843434105,28.838860113494547,60.0,0.0,0,,,,,,
75.99005757305628,2.528826242935501,261.9171645250921,28.83536991793609,60.0,0.0,0,,,,,,
76.99005757305628,2.5454929096021677,260.9171706158432,28.831879722377636,60.0,0.0,0,,,,,,
77.99005757305628,2.5621595762688343,259.91717670659426,28.82838952681918,60.0,0.0,0,,,,,,
78.99005757305628,2.578826242935501,258.91718279734533,28.824899331260724,60.0,0.0,0,,,,,,
79.99005757305628,2.5954929096021675,257.9171888880964,28.821409135702268,60.0,0.0,0,,,,,,
80.99005757305628,2.612159576268834,256.9171949788475,28.817918940143812,60.0,0.0,0,,,,,,
81.99005757305628,2.6288262429355007,255.91720106959855,28.814428744585356,60.0,0.0,0,,,,,,
82.99005757305628,2.6454929096021673,254.91720716034962,28.8109385490269,60.0,0.0,0,,,,,,
83.99005757305628,2.662159576268834,253.9172132511007,28.807448353468445,60.0,0.0,0,,,,,,
84.99005757305628,2.6788262429355005,252.91721934185176,28.80395815790999,60.0,0.0,0,,,,,,
85.99005757305628,2.695492909602167,251.91722543260283,28.800467962351533,60.0,0.0,0,,,,,,
86.99005757305628,2.7121595762688337,250.9172315233539,28.796977766793077,60.0,0.0,0,,,,,,
87.99005757305628,2.7288262429355004,249.91723761410498,28.79348757123462,60.0,0.0,0,,,,,,
88.99005757305628,2.745492909602167,248.91724370485605,28.789997375676165,60.0,0.0,0,,,,,,
89.99005757305628,2.7621595762688336,247.91724979560712,28.78650718011771,60.0,0.0,0,,,,,,
90.99005757305628,2.7788262429355,246.9172558863582,28.783016984559254,60.0,0.0,0,,,,,,
91.99005757305628,2.795492909602167,245.91726197710926,28.779526789000798,60.0,0.0,0,,,,,,
92.99005757305628,2.8121595762688334,244.91726806786033,28.776036593442342,60.0,0.0,0,,,,,,
93.99005757305628,2.8288262429355,243.9172741586114,28.772546397883886,60.0,0.0,0,,,,,,
94.99005757305628,2.8454929096021666,242.91728024936248,28.76905620232543,60.0,0.0,0,,,,,,
95.99005757305628,2.862159576268833,241.91728634011355,28.765566006766974,60.0,0.0,0,,,,,,
96.99005757305628,2.8788262429355,240.91729243086462,28.76207581120852,60.0,0.0,0,,,,,,
97.99005757305628,2.8954929096021664,239.9172985216157,28.758585615650063,60.0,0.0,0,,,,,,
98.99005757305628,2.912159576268833,238.91730461236676,28.755095420091607,60.0,0.0,0,,,,,,
99.99005757305628,2.9288262429354996,237.91731070311783,28.75160522453315,60.0,0.0,0,,,,,,
100.99005757305628,2.9454929096021663,236.9173167938689,28.748115028974695,60.0,0.0,0,,,,,,
101.99005757305628,2.962159576268833,235.91732288461998,28.74462483341624,60.0,0.0,0,,,,,,
102.99005757305628,2.9788262429354995,234.91732897537105,28.741134637857783,60.0,0.0,0,,,,,,
103.99005757305628,2.995492909602166,233.91733506612212,28.737644442299327,60.0,0.0,0,,,,,,
104.99005757305628,3.0121595762688327,232.9173411568732,28.73415424674087,60.0,0.0,0,,,,,,
105.99005757305628,3.0288262429354993,231.91734724762426,28.730664051182416,60.0,0.0,0,,,,,,
106.99005757305628,3.045492909602166,230.91735333837534,28.72717385562396,60.0,0.0,0,,,,,,
107.99005757305628,3.0621595762688325,229.9173594291264,28.723683660065504,60.0,0.0,0,,,,,,
108.99005757305628,3.078826242935499,228.91736551987748,28.720193464507048,60.0,0.0,0,,,,,,
109.99005757305628,3.0954929096021657,227.91737161062855,28.716703268948592,60.0,0.0,0,,,,,,
110.99005757305628,3.1121595762688323,226.91737770137962,28.713213073390136,60.0,0.0,0,,,,,,
111.99005757305628,3.128826242935499,225.9173837921307,28.70972287783168,60.0,0.0,0,,,,,,
112.99005757305628,3.1454929096021655,224.91738988288176,28.706232682273225,60.0,0.0,0,,,,,,
113.99005757305628,3.162159576268832,223.91739597363284,28.70274248671477,60.0,0.0,0,,,,,,
114.99005757305628,3.1788262429354988,222.9174020643839,28.699252291156313,60.0,0.0,0,,,,,,
115.99005757305628,3.1954929096021654,221.91740815513498,28.695762095597857,60.0,0.0,0,,,,,,
116.99005757305628,3.212159576268832,220.91741424588605,28.6922719000394,60.0,0.0,0,,,,,,
117.99005757305628,3.2288262429354986,219.91742033663712,28.688781704480945,60.0,0.0,0,,,,,,
118.99005757305628,3.245492909602165,218.9174264273882,28.68529150892249,60.0,0.0,0,,,,,,
119.99005757305628,3.262159576268832,217.91743251813926,28.681801313364033,60.0,0.0,0,,,,,,
120.99005757305628,3.2788262429354984,216.91743860889034,28.678311117805578,60.0,0.0,0,,,,,,
121.99005757305628,3.295492909602165,215.9174446996414,28.67482092224712,60.0,0.0,0,,,,,,
122.99005757305628,3.3121595762688316,214.91745079039248,28.671330726688666,60.0,0.0,0,,,,,,
123.99005757305628,3.3288262429354982,213.91745688114355,28.66784053113021,60.0,0.0,0,,,,,,
124.99005757305628,3.345492909602165,212.91746297189462,28.664350335571754,60.0,0.0,0,,,,,,
125.99005757305628,3.3621595762688314,211.9174690626457,28.6608601400133,60.0,0.0,0,,,,,,
126.99005757305628,3.378826242935498,210.91747515339677,28.657369944454842,60.0,0.0,0,,,,,,
127.99005757305628,3.3954929096021647,209.91748124414784,28.653879748896387,60.0,0.0,0,,,,,,
128.99005757305628,3.4121595762688313,208.9174873348989,28.65038955333793,60.0,0.0,0,,,,,,
129.99005757305628,3.428826242935498,207.91749342564998,28.646899357779475,60.0,0.0,0,,,,,,
130.99005757305628,3.4454929096021645,206.91749951640105,28.64340916222102,60.0,0.0,0,,,,,,
131.99005757305628,3.462159576268831,205.91750560715212,28.639918966662563,60.0,0.0,0,,,,,,
132.99005757305628,3.4788262429354977,204.9175116979032,28.636428771104107,60.0,0.0,0,,,,,,
133.99005757305628,3.4954929096021643,203.91751778865427,28.63293857554565,60.0,0.0,0,,,,,,
135.21884177084587,3.5159726462319907,202.8453232605201,28.03268071547503,60.0,0.0,0,,,,,,
136.21421856700636,3.532562259501332,201.89067900117246,28.314512765514213,60.0,0.0,0,,,,,,
137.20959536316684,3.5491518727706732,201.0807952292024,28.893186457878304,60.0,0.0,0,,,,,,
138.20497215932733,3.5657414860400145,200.5048288964887,29.70499785833721,60.0,0.0,0,,,,,,
139.20497215932733,3.582408152706681,200.5488717490275,30.70402750111076,60.0,0.0,0,,,,,,
140.20497215932733,3.5990748193733477,200.59291460156632,31.703057143884312,60.0,0.0,0,,,,,,
141.20497215932733,3.6157414860400143,200.63695745410513,32.70208678665786,60.0,0.0,0,,,,,,
142.20497215932733,3.632408152706681,200.68100030664394,33.70111642943141,60.0,0.0,0,,,,,,
143.20497215932733,3.6490748193733475,200.72504315918275,34.70014607220496,60.0,0.0,0,,,,,,
144.20497215932733,3.665741486040014,200.76908601172155,35.69917571497851,60.0,0.0,0,,,,,,
145.20497215932733,3.6824081527066808,200.81312886426036,36.69820535775206,60.0,0.0,0,,,,,,
146.20497215932733,3.6990748193733474,200.85717171679917,37.69723500052561,60.0,0.0,0,,,,,,
147.20497215932733,3.715741486040014,200.90121456933798,38.69626464329916,60.0,0.0,0,,,,,,
148.20497215932733,3.7324081527066806,200.9452574218768,39.69529428607271,60.0,0.0,0,,,,,,
149.20497215932733,3.749074819373347,200.9893002744156,40.69432392884626,60.0,0.0,0,,,,,,
150.20497215932733,3.765741486040014,201.0333431269544,41.69335357161981,60.0,0.0,0,,,,,,
151.20497215932733,3.7824081527066804,201.07738597949322,42.69238321439336,60.0,0.0,0,,,,,,
152.20497215932733,3.799074819373347,201.12142883203202,43.69141285716691,60.0,0.0,0,,,,,,
153.20497215932733,3.8157414860400136,201.16547168457083,44.69044249994046,60.0,0.0,0,,,,,,
154.20497215932733,3.8324081527066802,201.20951453710964,45.68947214271401,60.0,0.0,0,,,,,,
155.20497215932733,3.849074819373347,201.25355738964845,46.68850178548756,60.0,0.0,0,,,,,,
156.20497215932733,3.8657414860400134,201.29760024218726,47.68753142826111,60.0,0.0,0,,,,,,
157.20497215932733,3.88240815270668,201.34164309472607,48.68656107103466,60.0,0.0,0,,,,,,
158.20497215932733,3.8990748193733467,201.38568594726488,49.68559071380821,60.0,0.0,0,,,,,,
159.20497215932733,3.9157414860400133,201.42972879980368,50.68462035658176,60.0,0.0,0,,,,,,
160.20497215932733,3.93240815270668,201.4737716523425,51.68364999935531,60.0,0.0,0,,,,,,
161.20497215932733,3.9490748193733465,201.5178145048813,52.68267964212886,60.0,0.0,0,,,,,,
162.20497215932733,3.965741486040013,201.5618573574201,53.68170928490241,60.0,0.0,0,,,,,,
163.20497215932733,3.9824081527066797,201.60590020995892,54.68073892767596,60.0,0.0,0,,,,,,
164.20497215932733,3.9990748193733463,201.64994306249773,55.67976857044951,60.0,0.0,0,,,,,,
165.20497215932733,4.015741486040013,201.69398591503654,56.67879821322306,60.0,0.0,0,,,,,,
166.20497215932733,4.0324081527066795,201.73802876757534,57.67782785599661,60.0,0.0,0,,,,,,
167.20497215932733,4.049074819373346,201.78207162011415,58.67685749877016,60.0,0.0,0,,,,,,
168.20497215932733,4.065741486040013,201.82611447265296,59.67588714154371,60.0,0.0,0,,,,,,
169.20497215932733,4.082408152706679,201.87015732519177,60.67491678431726,60.0,0.0,0,,,,,,
170.20497215932733,4.099074819373346,201.91420017773058,61.67394642709081,60.0,0.0,0,,,,,,
171.20497215932733,4.1157414860400126,201.9582430302694,62.67297606986436,60.0,0.0,0,,,,,,
172.20497215932733,4.132408152706679,202.0022858828082,63.67200571263791,60.0,0.0,0,,,,,,
173.20497215932733,4.149074819373346,202.046328735347,64.67103535541146,60.0,0.0,0,,,,,,
174.20497215932733,4.165741486040012,202.0903715878858,65.67006499818501,60.0,0.0,0,,,,,,
175.20497215932733,4.182408152706679,202.13441444042462,66.66909464095856,60.0,0.0,0,,,,,,
176.20497215932733,4.199074819373346,202.17845729296343,67.66812428373211,60.0,0.0,0,,,,,,
177.20497215932733,4.215741486040012,202.22250014550224,68.66715392650566,60.0,0.0,0,,,,,,
178.20497215932733,4.232408152706679,202.26654299804105,69.66618356927921,60.0,0.0,0,,,,,,
179.20497215932733,4.249074819373345,202.31058585057986,70.66521321205276,60.0,0.0,0,,,,,,
180.20497215932733,4.265741486040012,202.35462870311866,71.66424285482631,60.0,0.0,0,,,,,,
181.20497215932733,4.282408152706679,202.39867155565747,72.66327249759986,60.0,0.0,0,,,,,,
182.20497215932733,4.299074819373345,202.44271440819628,73.66230214037341,60.0,0.0,0,,,,,,
183.20497215932733,4.315741486040012,202.4867572607351,74.66133178314696,60.0,0.0,0,,,,,,
184.20497215932733,4.3324081527066785,202.5308001132739,75.66036142592051,60.0,0.0,0,,,,,,
185.20497215932733,4.349074819373345,202.5748429658127,76.65939106869406,60.0,0.0,0,,,,,,
186.20497215932733,4.365741486040012,202.61888581835152,77.65842071146761,60.0,0.0,0,,,,,,
187.20497215932733,4.382408152706678,202.66292867089032,78.65745035424116,60.0,0.0,0,,,,,,
188.20497215932733,4.399074819373345,202.70697152342913,79.65647999701471,60.0,0.0,0,,,,,,
189.20497215932733,4.4157414860400115,202.75101437596794,80.65550963978826,60.0,0.0,0,,,,,,
190.20497215932733,4.432408152706678,202.79505722850675,81.65453928256181,60.0,0.0,0,,,,,,
191.20497215932733,4.449074819373345,202.83910008104556,82.65356892533536,60.0,0.0,0,,,,,,
191.78164087911185,4.458685964703086,202.5,83.12,60.0,0.0,0,,,,,,
