Distance (in),Time (s),X (in),Y (in),Velocity (in/s),Orientation (deg),Touch,Rotational Velocity (deg/s),Way X (in),Way Y (in),Way Velocity (in/s),Way Orientation (deg),Way Turn Radius (in),Touch this Point
0.0,0.0,302.0,25.0,24.0,0.0,0,0.0,302.0,25.0,24.0,0.0,3.0,0.0
0.9999999999999956,0.04082334843431261,301.10923813029177,25.454470341687873,24.99157165459172,1.0525091455429783,0,27.869315080329027,280.44,36.0,48.0,70.0,3.0,0.0
1.9999999999999911,0.08005848690289018,300.21847626058354,25.908940683375747,25.98314330918344,3.0435537333983564,0,54.694991925739075,246.0,55.0,48.0,70.0,3.0,0.0
2.9999999999999867,0.11782436462572915,299.3277143908753,26.36341102506362,26.97471496377516,5.8737191316609545,0,80.55237259855835,234.0,60.0,60.0,70.0,3.0,0.0
3.9999999999999822,0.1542270500957019,298.4369525211671,26.817881366751493,27.96628661836688,9.455921877863364,0,105.50892478160044,215.0,67.0,24.0,70.0,15.0,0.0
4.999999999999978,0.18936152605169937,297.54619065145886,27.272351708439366,28.9578582729586,13.71357940939929,0,129.62530215785756,177.0,77.0,24.0,70.0,3.0,0.0
5.999999999999973,0.2233131823084325,296.65542878175063,27.72682205012724,29.94942992755032,18.579096681259394,0,152.95623211241505,,,,,,
6.999999999999969,0.2561590654860158,295.7646669120424,28.181292391815113,30.94100158214204,23.624860795460553,0,163.62585044771117,,,,,,
7.9999999999999645,0.28796893164618764,294.8739050423342,28.635762733502986,31.93257323673376,28.520916739602278,0,163.62585044771117,,,,,,
8.999999999999961,0.31880613799466495,293.98314317262594,29.09023307519086,32.92414489132548,33.27589223218879,0,163.62585044771117,,,,,,
9.999999999999957,0.3487284022991449,293.0923813029177,29.544703416878733,33.915716545917206,37.897690054581346,0,163.62585044771117,,,,,,
10.999999999999954,0.3777884528936934,292.2016194332095,29.999173758566606,34.90728820050893,42.39356705461088,0,163.62585044771117,,,,,,
11.99999999999995,0.4060345876563024,291.31085756350126,30.45364410025448,35.89885985510065,46.77020267336941,0,163.62585044771117,,,,,,
12.999999999999947,0.43351115683976554,290.42009569379303,30.908114441942352,36.89043150969238,51.03375861932581,0,163.62585044771117,,,,,,
13.999999999999943,0.4602589818734215,289.5293338240848,31.362584783630226,37.8820031642841,54.87081428903252,0,151.06242848012207,,,,,,
14.99999999999994,0.4863157200617365,288.6385719543766,31.8170551253181,38.873574818875824,58.166577935420776,0,133.02009341119384,,,,,,
15.999999999999936,0.5117161833557026,287.74781008466834,32.27152546700597,39.86514647346755,60.95772730628046,0,115.42101539846237,,,,,,
16.999999999999932,0.5364926179669784,286.8570482149601,32.725995808693845,40.85671812805927,63.27786148643286,0,98.24393714959562,,,,,,
17.99999999999993,0.5606749504583703,285.9662863452519,33.18046615038172,41.848289782650994,65.15781713176199,0,81.4690947189617,,,,,,
18.999999999999925,0.5842910050207963,285.07552447554366,33.63493649206959,42.83986143724272,66.62594625008299,0,65.0780808293652,,,,,,
19.999999999999922,0.6073666958924611,284.18476260583543,34.089406833757465,43.83143309183444,67.70836091428312,0,49.0537234808117,,,,,,
20.99999999999992,0.6299261982565587,283.2940007361272,34.54387717544534,44.823004746426165,68.42914944266604,0,33.37997783942686,,,,,,
21.999999999999915,0.651992100442833,282.403238866419,34.99834751713321,45.81457640101789,68.81056787991449,0,18.041829700446726,,,,,,
22.99999999999991,0.6735855398348618,281.51247699671075,35.452817858821085,46.80614805560961,70.0,0,3.025209069542427,,,,,,
23.999999999999908,0.6947263245324911,280.6217151270025,35.90728820050896,47.797719710201335,70.0,0,0.0,,,,,,
24.203999669476133,0.6989852916580833,280.44,36.0,48.0,70.0,0,0.0,,,,,,
25.20399966947614,0.7198186249914168,279.56440748395806,36.483050458908146,48.0,70.0,0,0.0,,,,,,
26.203999669476147,0.7406519583247503,278.68881496791613,36.96610091781629,48.0,70.0,0,0.0,,,,,,
27.203999669476154,0.7614852916580838,277.8132224518742,37.44915137672444,48.0,70.0,0,0.0,,,,,,
28.20399966947616,0.7823186249914172,276.93762993583226,37.93220183563258,48.0,70.0,0,0.0,,,,,,
29.20399966947617,0.8031519583247507,276.06203741979033,38.41525229454073,48.0,70.0,0,0.0,,,,,,
30.203999669476175,0.8239852916580842,275.1864449037484,38.898302753448874,48.0,70.0,0,0.0,,,,,,
31.203999669476183,0.8448186249914177,274.31085238770646,39.38135321235702,48.0,70.0,0,0.0,,,,,,
32.20399966947619,0.8656519583247512,273.4352598716645,39.864403671265165,48.0,70.0,0,0.0,,,,,,
33.2039996694762,0.8864852916580847,272.5596673556226,40.34745413017331,48.0,70.0,0,0.0,,,,,,
34.203999669476204,0.9073186249914181,271.68407483958066,40.83050458908146,48.0,70.0,0,0.0,,,,,,
35.20399966947621,0.9281519583247516,270.8084823235387,41.3135550479896,48.0,70.0,0,0.0,,,,,,
36.20399966947622,0.9489852916580851,269.9328898074968,41.79660550689775,48.0,70.0,0,0.0,,,,,,
37.203999669476225,0.9698186249914186,269.05729729145486,42.279655965805894,48.0,70.0,0,-0.0,,,,,,
38.20399966947623,0.9906519583247521,268.1817047754129,42.76270642471404,48.0,70.0,0,-0.0,,,,,,
39.20399966947624,1.0114852916580857,267.306112259371,43.245756883622185,48.0,70.0,0,-0.0,,,,,,
40.20399966947625,1.0323186249914191,266.43051974332906,43.72880734253033,48.0,70.0,0,-0.0,,,,,,
41.203999669476254,1.0531519583247526,265.5549272272871,44.21185780143848,48.0,70.0,0,-0.0,,,,,,
42.20399966947626,1.073985291658086,264.6793347112452,44.69490826034662,48.0,70.0,0,-0.0,,,,,,
43.20399966947627,1.0948186249914196,263.80374219520326,45.17795871925477,48.0,70.0,0,-0.0,,,,,,
44.203999669476275,1.115651958324753,262.9281496791613,45.661009178162914,48.0,70.0,0,-0.0,,,,,,
45.20399966947628,1.1364852916580865,262.0525571631194,46.14405963707106,48.0,70.0,0,-0.0,,,,,,
46.20399966947629,1.15731862499142,261.17696464707745,46.627110095979205,48.0,70.0,0,-0.0,,,,,,
47.203999669476296,1.1781519583247535,260.3013721310355,47.11016055488735,48.0,70.0,0,-0.0,,,,,,
48.2039996694763,1.198985291658087,259.4257796149936,47.5932110137955,48.0,70.0,0,-0.0,,,,,,
49.20399966947631,1.2198186249914205,258.55018709895165,48.07626147270364,48.0,70.0,0,0.0,,,,,,
50.20399966947632,1.240651958324754,257.6745945829097,48.55931193161179,48.0,70.0,0,0.0,,,,,,
51.203999669476325,1.2614852916580874,256.7990020668678,49.04236239051993,48.0,70.0,0,0.0,,,,,,
52.20399966947633,1.282318624991421,255.92340955082585,49.52541284942808,48.0,70.0,0,0.0,,,,,,
53.20399966947634,1.3031519583247544,255.04781703478392,50.008463308336225,48.0,70.0,0,0.0,,,,,,
54.203999669476346,1.3239852916580879,254.17222451874198,50.49151376724437,48.0,70.0,0,0.0,,,,,,
55.20399966947635,1.3448186249914214,253.29663200270005,50.974564226152516,48.0,70.0,0,0.0,,,,,,
56.20399966947636,1.3656519583247548,252.42103948665812,51.45761468506066,48.0,70.0,0,0.0,,,,,,
57.20399966947637,1.3864852916580883,251.54544697061618,51.94066514396881,48.0,70.0,0,0.0,,,,,,
58.203999669476374,1.4073186249914218,250.66985445457425,52.42371560287695,48.0,70.0,0,0.0,,,,,,
59.20399966947638,1.4281519583247553,249.79426193853232,52.9067660617851,48.0,70.0,0,0.0,,,,,,
60.20399966947639,1.4489852916580888,248.91866942249038,53.389816520693245,48.0,70.0,0,0.0,,,,,,
61.203999669476396,1.4698186249914222,248.04307690644845,53.87286697960139,48.0,70.0,0,0.0,,,,,,
62.2039996694764,1.4906519583247557,247.1674843904065,54.355917438509536,48.0,70.0,0,0.0,,,,,,
63.20399966947641,1.5114852916580892,246.29189187436458,54.83896789741768,48.0,70.0,0,0.0,,,,,,
63.53736464121482,1.5184082043073222,246.0,55.0,48.30772151237392,70.0,0,0.0,,,,,,
64.53736464121484,1.5389129238895944,245.07692307692307,55.38461538461539,49.23079843545085,70.0,0,0.0,,,,,,
65.53736464121485,1.5590367510719019,244.15384615384613,55.769230769230774,50.153875358527785,70.0,0,0.0,,,,,,
66.53736464121486,1.578793578578142,243.2307692307692,56.15384615384616,51.07695228160472,70.0,0,0.0,,,,,,
67.53736464121488,1.5981965526579185,242.30769230769226,56.53846153846155,52.00002920468165,70.0,0,-0.0,,,,,,
68.5373646412149,1.6172581256242924,241.38461538461533,56.923076923076934,52.92310612775859,70.0,0,-0.0,,,,,,
69.53736464121491,1.635990103849366,240.4615384615384,57.30769230769232,53.84618305083552,70.0,0,-0.0,,,,,,
70.53736464121492,1.6544036916809264,239.53846153846146,57.69230769230771,54.769259973912455,70.0,0,-0.0,,,,,,
71.53736464121494,1.6725095316891734,238.61538461538453,58.076923076923094,55.69233689698939,70.0,0,0.0,,,,,,
72.53736464121495,1.690317741605502,237.6923076923076,58.46153846153848,56.61541382006632,70.0,0,0.0,,,,,,
73.53736464121496,1.7078379482743207,236.76923076923066,58.84615384615387,57.53849074314326,70.0,0,0.0,,,,,,
74.53736464121498,1.7250793189031357,235.84615384615373,59.230769230769255,58.46156766622019,70.0,0,0.0,,,,,,
75.53736464121499,1.7420505898648495,234.9230769230768,59.61538461538464,59.384644589297125,70.0,0,0.0,,,,,,
76.53736464121486,1.759141427457997,234.0,60.0,57.637121552908575,70.0,0,0.0,,,,,,
77.53736464121488,1.7767584254543887,233.06165688318288,60.34570535882736,55.889598516519776,70.0,0,0.0,,,,,,
78.5373646412149,1.7949350097719272,232.12331376636575,60.69141071765472,54.14207548013098,70.0,0,0.0,,,,,,
79.53736464121491,1.8137078960456428,231.18497064954863,61.03711607648208,52.39455244374218,70.0,0,0.0,,,,,,
80.53736464121492,1.833117535960626,230.2466275327315,61.38282143530944,50.64702940735338,70.0,0,0.0,,,,,,
81.53736464121494,1.8532086419379739,229.3082844159144,61.7285267941368,48.89950637096458,70.0,0,0.0,,,,,,
82.53736464121495,1.874030807280035,228.36994129909726,62.07423215296416,47.15198333457578,70.0,0,0.0,,,,,,
83.53736464121496,1.8956392434029206,227.43159818228014,62.41993751179152,45.40446029818698,70.0,0,0.0,,,,,,
84.53736464121498,1.9180956617254938,226.49325506546302,62.765642870618876,43.656937261798184,70.0,0,0.0,,,,,,
85.53736464121499,1.941469335666693,225.5549119486459,63.111348229446236,41.909414225409385,70.0,0,-0.0,,,,,,
86.537364641215,1.9658383887711948,224.61656883182877,63.457053588273595,40.16189118902059,70.0,0,-0.0,,,,,,
87.53736464121502,1.9912913693120977,223.67822571501165,63.802758947100955,38.41436815263179,70.0,0,-0.0,,,,,,
88.53736464121504,2.017929191384016,222.73988259819453,64.14846430592831,36.66684511624299,70.0,0,-0.0,,,,,,
89.53736464121505,2.045867549845384,221.8015394813774,64.49416966475567,34.91932207985419,70.0,0,-0.0,,,,,,
90.53736464121506,2.0752399550430876,220.86319636456028,64.83987502358303,33.17179904346539,70.0,0,-0.0,,,,,,
91.53736464121508,2.106201588523685,219.92485324774316,65.1855803824104,31.42427600707659,70.0,0,0.0,,,,,,
92.53736464121509,2.1389342614992555,218.98651013092604,65.53128574123775,29.676752970687787,70.0,0,0.0,,,,,,
93.5373646412151,2.173652877503061,218.0481670141089,65.87699110006511,27.929229934298984,70.0,0,0.0,,,,,,
94.53736464121512,2.2106139821721924,217.1098238972918,66.22269645889247,26.181706897910182,70.0,0,0.0,,,,,,
95.53736464121513,2.250127264858566,216.17148078047467,66.56840181771983,24.43418386152138,70.0,0,0.0,,,,,,
96.53736464121515,2.2914204144596466,215.23313766365754,66.91410717654719,24.0,70.0,0,0.0,,,,,,
96.78582137253147,2.3017727782644934,215.0,67.0,24.0,70.0,0,0.0,,,,,,
97.78582137253147,2.34343944493116,214.03292546273735,67.25449329927964,24.0,70.0,0,0.0,,,,,,
98.78582137253147,2.3851061115978265,213.0658509254747,67.50898659855929,24.0,70.0,0,0.0,,,,,,
99.78582137253147,2.426772778264493,212.09877638821206,67.76347989783893,24.0,70.0,0,0.0,,,,,,
100.78582137253147,2.4684394449311595,211.1317018509494,68.01797319711858,24.0,70.0,0,0.0,,,,,,
101.78582137253147,2.510106111597826,210.16462731368676,68.27246649639822,24.0,70.0,0,0.0,,,,,,
102.78582137253147,2.5517727782644926,209.19755277642412,68.52695979567787,24.0,70.0,0,0.0,,,,,,
103.78582137253147,2.593439444931159,208.23047823916147,68.78145309495751,24.0,70.0,0,0.0,,,,,,
104.78582137253147,2.6351061115978256,207.26340370189882,69.03594639423716,24.0,70.0,0,0.0,,,,,,
105.78582137253147,2.676772778264492,206.29632916463618,69.2904396935168,24.0,70.0,0,0.0,,,,,,
106.78582137253147,2.7184394449311586,205.32925462737353,69.54493299279645,24.0,70.0,0,0.0,,,,,,
107.78582137253147,2.760106111597825,204.36218009011088,69.79942629207609,24.0,70.0,0,0.0,,,,,,
108.78582137253147,2.8017727782644917,203.39510555284824,70.05391959135574,24.0,70.0,0,0.0,,,,,,
109.78582137253147,2.843439444931158,202.4280310155856,70.30841289063538,24.0,70.0,0,-0.0,,,,,,
110.78582137253147,2.8851061115978247,201.46095647832294,70.56290618991503,24.0,70.0,0,-0.0,,,,,,
111.78582137253147,2.9267727782644912,200.4938819410603,70.81739948919467,24.0,70.0,0,-0.0,,,,,,
112.78582137253147,2.9684394449311577,199.52680740379765,71.07189278847432,24.0,70.0,0,-0.0,,,,,,
113.78582137253147,3.0101061115978243,198.559732866535,71.32638608775396,24.0,70.0,0,-0.0,,,,,,
114.78582137253147,3.051772778264491,197.59265832927235,71.5808793870336,24.0,70.0,0,-0.0,,,,,,
115.78582137253147,3.0934394449311573,196.6255837920097,71.83537268631325,24.0,70.0,0,-0.0,,,,,,
116.78582137253147,3.135106111597824,195.65850925474706,72.0898659855929,24.0,70.0,0,-0.0,,,,,,
117.78582137253147,3.1767727782644903,194.6914347174844,72.34435928487254,24.0,70.0,0,-0.0,,,,,,
118.78582137253147,3.218439444931157,193.72436018022177,72.59885258415218,24.0,70.0,0,-0.0,,,,,,
119.78582137253147,3.2601061115978234,192.75728564295912,72.85334588343183,24.0,70.0,0,-0.0,,,,,,
120.78582137253147,3.30177277826449,191.79021110569647,73.10783918271147,24.0,70.0,0,-0.0,,,,,,
121.78582137253147,3.3434394449311564,190.82313656843382,73.36233248199112,24.0,70.0,0,0.0,,,,,,
122.78582137253147,3.385106111597823,189.85606203117118,73.61682578127076,24.0,70.0,0,0.0,,,,,,
123.78582137253147,3.4267727782644894,188.88898749390853,73.8713190805504,24.0,70.0,0,0.0,,,,,,
124.78582137253147,3.468439444931156,187.92191295664588,74.12581237983005,24.0,70.0,0,0.0,,,,,,
125.78582137253147,3.5101061115978225,186.95483841938324,74.3803056791097,24.0,70.0,0,0.0,,,,,,
126.78582137253147,3.551772778264489,185.9877638821206,74.63479897838934,24.0,70.0,0,0.0,,,,,,
127.78582137253147,3.5934394449311555,185.02068934485794,74.88929227766899,24.0,70.0,0,0.0,,,,,,
128.78582137253147,3.635106111597822,184.0536148075953,75.14378557694863,24.0,70.0,0,0.0,,,,,,
129.78582137253147,3.6767727782644886,183.08654027033265,75.39827887622828,24.0,70.0,0,0.0,,,,,,
130.78582137253147,3.718439444931155,182.11946573307,75.65277217550792,24.0,70.0,0,0.0,,,,,,
131.78582137253147,3.7601061115978216,181.15239119580735,75.90726547478756,24.0,70.0,0,0.0,,,,,,
132.78582137253147,3.801772778264488,180.1853166585447,76.16175877406721,24.0,70.0,0,0.0,,,,,,
133.78582137253147,3.8434394449311546,179.21824212128206,76.41625207334685,24.0,70.0,0,0.0,,,,,,
134.78582137253147,3.885106111597821,178.2511675840194,76.6707453726265,24.0,70.0,0,0.0,,,,,,
135.78582137253147,3.9267727782644877,177.28409304675677,76.92523867190614,24.0,70.0,0,0.0,,,,,,
136.07958678130845,3.939013003630195,177.0,77.0,24.0,70.0,0,0.0,,,,,,
