Distance (in),Time (s),X (in),Y (in),Velocity (in/s),Orientation (deg),Touch,Way X (in),Way Y (in),Way Velocity (in/s),Way Orientation (deg),Way Turn Radius (in),Touch this Point
0.0,0.0,302.0,72.0,24.0,0.0,0,302.0,72.0,24.0,0.0,3.0,0
1.000000000000006,0.04143120886579346,301.83336795695544,71.01398085098168,24.27278891326912,0.0,0,294.62,28.33,36.0,0.0,3.0,0.0
2.000000000000012,0.08239939632400223,301.6667359139109,70.02796170196336,24.545577826538242,0.0,0,200.07,28.0,60.0,0.0,12.0,0.0
3.0000000000000178,0.1229147971407257,301.5001038708663,69.04194255294505,24.818366739807363,0.0,0,202.5,83.12,60.0,0.0,5.0,0.0
4.000000000000024,0.1629873104430204,301.33347182782177,68.05592340392673,25.091155653076484,0.0,0,,,,,,
5.00000000000003,0.2026265142361413,301.1668397847772,67.06990425490841,25.363944566345605,0.0,0,,,,,,
6.000000000000036,0.2418416791442955,301.00020774173265,66.08388510589009,25.636733479614726,0.0,0,,,,,,
7.000000000000043,0.28064178142421825,300.8335756986881,65.09786595687177,25.909522392883847,0.0,0,,,,,,
8.000000000000048,0.3190355152972685,300.66694365564354,64.11184680785345,26.182311306152968,0.0,0,,,,,,
9.000000000000053,0.357031304642424,300.500311612599,63.125827658835135,26.45510021942209,0.0,0,,,,,,
10.000000000000059,0.3946373140895131,300.3336795695544,62.13980850981682,26.72788913269121,0.0,0,,,,,,
11.000000000000064,0.43186145954922467,300.16704752650986,61.1537893607985,27.00067804596033,0.0,0,,,,,,
12.00000000000007,0.4687114182138663,300.0004154834653,60.16777021178018,27.273466959229452,0.0,0,,,,,,
13.000000000000075,0.5051946380604736,299.83378344042075,59.18175106276186,27.546255872498573,0.0,0,,,,,,
14.00000000000008,0.5413183468856944,299.6671513973762,58.19573191374354,27.819044785767694,0.0,0,,,,,,
15.000000000000085,0.5770895608998611,299.50051935433163,57.209712764725225,28.091833699036815,0.0,0,,,,,,
16.000000000000092,0.6125150929058115,299.33388731128707,56.22369361570691,28.364622612305936,0.0,0,,,,,,
17.0000000000001,0.647601560086303,299.1672552682425,55.23767446668859,28.637411525575057,0.0,0,,,,,,
18.000000000000107,0.6823553914222859,299.00062322519796,54.25165531767027,28.91020043884418,0.0,0,,,,,,
19.000000000000114,0.716782834762836,298.8339911821534,53.26563616865195,29.1829893521133,0.0,0,,,,,,
20.00000000000012,0.7508899635661924,298.66735913910884,52.27961701963363,29.45577826538242,0.0,0,,,,,,
21.000000000000128,0.7846826833300911,298.5007270960643,51.293597870615315,29.72856717865154,0.0,0,,,,,,
22.000000000000135,0.8181667377284227,298.3340950530197,50.307578721597,30.001356091920663,0.0,0,,,,,,
23.000000000000142,0.8513477144701639,298.16746300997517,49.32155957257868,30.274145005189784,0.0,0,,,,,,
24.00000000000015,0.8842310508955289,298.0008309669306,48.33554042356036,30.546933918458905,0.0,0,,,,,,
25.000000000000156,0.9168220393233598,297.83419892388605,47.34952127454204,30.819722831728026,0.0,0,,,,,,
26.000000000000163,0.9491258321629076,297.6675668808415,46.36350212552372,31.092511744997147,0.0,0,,,,,,
27.00000000000017,0.981147446802352,297.50093483779693,45.377482976505405,31.365300658266268,0.0,0,,,,,,
28.000000000000178,1.0128917702856617,297.3343027947524,44.39146382748709,31.63808957153539,0.0,0,,,,,,
29.000000000000185,1.0443635637886954,297.1676707517078,43.40544467846877,31.91087848480451,0.0,0,,,,,,
30.000000000000192,1.0755674669047994,297.00103870866326,42.41942552945045,32.18366739807363,0.0,0,,,,,,
31.0000000000002,1.1065080017495474,296.8344066656187,41.43340638043213,32.45645631134275,0.0,0,,,,,,
32.000000000000206,1.137189576893705,296.66777462257414,40.44738723141381,32.729245224611866,0.0,0,,,,,,
33.00000000000021,1.1676164911329743,296.5011425795296,39.461368082395495,33.00203413788098,0.0,0,,,,,,
34.00000000000022,1.197792937102579,296.334510536485,38.47534893337718,33.2748230511501,0.0,0,,,,,,
35.00000000000023,1.2277230047442929,296.16787849344047,37.48932978435886,33.54761196441922,0.0,0,,,,,,
36.000000000000234,1.2574106846330775,296.0012464503959,36.50331063534054,33.820400877688336,0.0,0,,,,,,
37.00000000000024,1.2868598711701011,295.83461440735135,35.51729148632222,34.09318979095745,0.0,0,,,,,,
38.00000000000025,1.3160743656485245,295.6679823643068,34.5312723373039,34.36597870422657,0.0,0,,,,,,
39.000000000000256,1.3450578791980907,295.50135032126224,33.545253188285585,34.63876761749569,0.0,0,,,,,,
40.00000000000026,1.373814035614222,295.3347182782177,32.55923403926727,34.911556530764805,0.0,0,,,,,,
41.00000000000026,1.4023463740770192,295.1680862351731,31.573214890248952,35.18434544403392,0.0,0,,,,,,
41.99930398073543,1.4306387221260057,294.99235966375073,30.589482905402836,35.45694449096417,0.0,0,,,,,,
42.99468077689592,1.458604472466296,294.5928150823969,29.67781460286868,35.72847224548209,0.0,0,,,,,,
43.99005757305642,1.4860393084527308,293.91696962105783,28.94705617580668,36.834512760345596,0.0,0,,,,,,
44.99005757305641,1.512784354780983,292.9169757118089,28.943565980248223,37.94569047629182,0.0,0,,,,,,
45.990057573056404,1.538757517680794,291.91698180256,28.940075784689768,39.05686819223805,0.0,0,,,,,,
46.9900575730564,1.564002101694667,290.91698789331105,28.93658558913131,40.168045908184276,0.0,0,,,,,,
47.99005757305639,1.5885578665654154,289.9169939840621,28.933095393572856,41.2792236241305,0.0,0,,,,,,
48.99005757305638,1.6124614038509664,288.9170000748132,28.9296051980144,42.39040134007673,0.0,0,,,,,,
49.990057573056376,1.6357464648168072,287.91700616556426,28.926115002455944,43.501579056022955,0.0,0,,,,,,
50.99005757305637,1.6584442469791125,286.91701225631533,28.92262480689749,44.61275677196918,0.0,0,,,,,,
51.99005757305636,1.6805836454019116,285.9170183470664,28.919134611339032,45.72393448791541,0.0,0,,,,,,
52.990057573056355,1.7021914738258583,284.9170244378175,28.915644415780577,46.835112203861634,0.0,0,,,,,,
53.99005757305635,1.7232926598727836,283.91703052856855,28.91215422022212,47.94628991980786,0.0,0,,,,,,
54.99005757305634,1.7439104178895741,282.9170366193196,28.908664024663665,49.05746763575409,0.0,0,,,,,,
55.99005757305633,1.7640664024362314,281.9170427100707,28.90517382910521,50.16864535170031,0.0,0,,,,,,
56.990057573056326,1.7837808449621924,280.91704880082176,28.901683633546753,51.27982306764654,0.0,0,,,,,,
57.99005757305632,1.8030726758332372,279.91705489157283,28.898193437988297,52.391000783592766,0.0,0,,,,,,
58.99005757305631,1.821959633553644,278.9170609823239,28.89470324242984,53.50217849953899,0.0,0,,,,,,
59.990057573056305,1.840458362762834,277.917067073075,28.891213046871385,54.61335621548522,0.0,0,,,,,,
60.9900575730563,1.8585845023630831,276.91707316382605,28.88772285131293,55.724533931431445,0.0,0,,,,,,
61.99005757305629,1.8763527649474045,275.9170792545771,28.884232655754474,56.83571164737767,0.0,0,,,,,,
62.99005757305628,1.8937770085382386,274.9170853453282,28.880742460196018,57.9468893633239,0.0,0,,,,,,
63.990057573056276,1.9108703015132353,273.91709143607926,28.877252264637562,59.058067079270124,0.0,0,,,,,,
64.99005757305628,1.9276688272163982,272.91709752683033,28.873762069079106,60.0,0.0,0,,,,,,
65.99005757305628,1.9443354938830648,271.9171036175814,28.87027187352065,60.0,0.0,0,,,,,,
66.99005757305628,1.9610021605497314,270.9171097083325,28.866781677962194,60.0,0.0,0,,,,,,
67.99005757305628,1.977668827216398,269.91711579908355,28.86329148240374,60.0,0.0,0,,,,,,
68.99005757305628,1.9943354938830646,268.9171218898346,28.859801286845283,60.0,0.0,0,,,,,,
69.99005757305628,2.0110021605497312,267.9171279805857,28.856311091286827,60.0,0.0,0,,,,,,
70.99005757305628,2.027668827216398,266.91713407133676,28.85282089572837,60.0,0.0,0,,,,,,
71.99005757305628,2.0443354938830645,265.91714016208783,28.849330700169915,60.0,0.0,0,,,,,,
72.99005757305628,2.061002160549731,264.9171462528389,28.84584050461146,60.0,0.0,0,,,,,,
73.99005757305628,2.0776688272163977,263.91715234359,28.842350309053003,60.0,0.0,0,,,,,,
74.99005757305628,2.0943354938830643,262.91715843434105,28.838860113494547,60.0,0.0,0,,,,,,
75.99005757305628,2.111002160549731,261.9171645250921,28.83536991793609,60.0,0.0,0,,,,,,
76.99005757305628,2.1276688272163975,260.9171706158432,28.831879722377636,60.0,0.0,0,,,,,,
77.99005757305628,2.144335493883064,259.91717670659426,28.82838952681918,60.0,0.0,0,,,,,,
78.99005757305628,2.1610021605497307,258.91718279734533,28.824899331260724,60.0,0.0,0,,,,,,
79.99005757305628,2.1776688272163973,257.9171888880964,28.821409135702268,60.0,0.0,0,,,,,,
80.99005757305628,2.194335493883064,256.9171949788475,28.817918940143812,60.0,0.0,0,,,,,,
81.99005757305628,2.2110021605497305,255.91720106959855,28.814428744585356,60.0,0.0,0,,,,,,
82.99005757305628,2.227668827216397,254.91720716034962,28.8109385490269,60.0,0.0,0,,,,,,
83.99005757305628,2.2443354938830637,253.9172132511007,28.807448353468445,60.0,0.0,0,,,,,,
84.99005757305628,2.2610021605497304,252.91721934185176,28.80395815790999,60.0,0.0,0,,,,,,
85.99005757305628,2.277668827216397,251.91722543260283,28.800467962351533,60.0,0.0,0,,,,,,
86.99005757305628,2.2943354938830636,250.9172315233539,28.796977766793077,60.0,0.0,0,,,,,,
87.99005757305628,2.31100216054973,249.91723761410498,28.79348757123462,60.0,0.0,0,,,,,,
88.99005757305628,2.327668827216397,248.91724370485605,28.789997375676165,60.0,0.0,0,,,,,,
89.99005757305628,2.3443354938830634,247.91724979560712,28.78650718011771,60.0,0.0,0,,,,,,
90.99005757305628,2.36100216054973,246.9172558863582,28.783016984559254,60.0,0.0,0,,,,,,
91.99005757305628,2.3776688272163966,245.91726197710926,28.779526789000798,60.0,0.0,0,,,,,,
92.99005757305628,2.394335493883063,244.91726806786033,28.776036593442342,60.0,0.0,0,,,,,,
93.99005757305628,2.41100216054973,243.9172741586114,28.772546397883886,60.0,0.0,0,,,,,,
94.99005757305628,2.4276688272163964,242.91728024936248,28.76905620232543,60.0,0.0,0,,,,,,
95.99005757305628,2.444335493883063,241.91728634011355,28.765566006766974,60.0,0.0,0,,,,,,
96.99005757305628,2.4610021605497296,240.91729243086462,28.76207581120852,60.0,0.0,0,,,,,,
97.99005757305628,2.4776688272163963,239.9172985216157,28.758585615650063,60.0,0.0,0,,,,,,
98.99005757305628,2.494335493883063,238.91730461236676,28.755095420091607,60.0,0.0,0,,,,,,
99.99005757305628,2.5110021605497295,237.91731070311783,28.75160522453315,60.0,0.0,0,,,,,,
100.99005757305628,2.527668827216396,236.9173167938689,28.748115028974695,60.0,0.0,0,,,,,,
101.99005757305628,2.5443354938830627,235.91732288461998,28.74462483341624,60.0,0.0,0,,,,,,
102.99005757305628,2.5610021605497293,234.91732897537105,28.741134637857783,60.0,0.0,0,,,,,,
103.99005757305628,2.577668827216396,233.91733506612212,28.737644442299327,60.0,0.0,0,,,,,,
104.99005757305628,2.5943354938830625,232.9173411568732,28.73415424674087,60.0,0.0,0,,,,,,
105.99005757305628,2.611002160549729,231.91734724762426,28.730664051182416,60.0,0.0,0,,,,,,
106.99005757305628,2.6276688272163957,230.91735333837534,28.72717385562396,60.0,0.0,0,,,,,,
107.99005757305628,2.6443354938830623,229.9173594291264,28.723683660065504,60.0,0.0,0,,,,,,
108.99005757305628,2.661002160549729,228.91736551987748,28.720193464507048,60.0,0.0,0,,,,,,
109.99005757305628,2.6776688272163955,227.91737161062855,28.716703268948592,60.0,0.0,0,,,,,,
110.99005757305628,2.694335493883062,226.91737770137962,28.713213073390136,60.0,0.0,0,,,,,,
111.99005757305628,2.7110021605497288,225.9173837921307,28.70972287783168,60.0,0.0,0,,,,,,
112.99005757305628,2.7276688272163954,224.91738988288176,28.706232682273225,60.0,0.0,0,,,,,,
113.99005757305628,2.744335493883062,223.91739597363284,28.70274248671477,60.0,0.0,0,,,,,,
114.99005757305628,2.7610021605497286,222.9174020643839,28.699252291156313,60.0,0.0,0,,,,,,
115.99005757305628,2.777668827216395,221.91740815513498,28.695762095597857,60.0,0.0,0,,,,,,
116.99005757305628,2.794335493883062,220.91741424588605,28.6922719000394,60.0,0.0,0,,,,,,
117.99005757305628,2.8110021605497284,219.91742033663712,28.688781704480945,60.0,0.0,0,,,,,,
118.99005757305628,2.827668827216395,218.9174264273882,28.68529150892249,60.0,0.0,0,,,,,,
119.99005757305628,2.8443354938830616,217.91743251813926,28.681801313364033,60.0,0.0,0,,,,,,
120.99005757305628,2.8610021605497282,216.91743860889034,28.678311117805578,60.0,0.0,0,,,,,,
121.99005757305628,2.877668827216395,215.9174446996414,28.67482092224712,60.0,0.0,0,,,,,,
122.99005757305628,2.8943354938830614,214.91745079039248,28.671330726688666,60.0,0.0,0,,,,,,
123.99005757305628,2.911002160549728,213.91745688114355,28.66784053113021,60.0,0.0,0,,,,,,
124.99005757305628,2.9276688272163947,212.91746297189462,28.664350335571754,60.0,0.0,0,,,,,,
126.18662292215888,2.9476115830347713,211.8811515704685,28.066163647365446,60.0,0.0,0,,,,,,
127.18633359542332,2.9642734275891787,210.88670427222385,28.168613641278604,60.0,0.0,0,,,,,,
128.1860442686878,2.9809352721435864,209.90423553977723,28.35348283828997,60.0,0.0,0,,,,,,
129.18575494195224,2.997597116697994,208.9405641252519,28.619488167307296,60.0,0.0,0,,,,,,
130.1854656152167,3.0142589612524016,208.0023783193658,28.96478343786962,60.0,0.0,0,,,,,,
131.1851762884812,3.0309208058068093,207.09618953184076,29.38697215349667,60.0,0.0,0,,,,,,
132.18488696174563,3.0475826503612167,206.2282870994414,29.88312414439676,60.0,0.0,0,,,,,,
133.1845976350101,3.0642444949156245,205.4046946352947,30.449795904095154,60.0,0.0,0,,,,,,
134.18430830827455,3.080906339470032,204.63112822244554,31.08305448883801,60.0,0.0,0,,,,,,
135.18401898153903,3.0975681840244396,203.9129567418016,31.778504813899808,60.0,0.0,0,,,,,,
136.1837296548035,3.1142300285788473,203.2551646098097,32.53132015734629,60.0,0.0,0,,,,,,
137.18344032806797,3.130891873133255,202.66231718447926,33.33627565954376,60.0,0.0,0,,,,,,
138.18315100133242,3.1475537176876625,202.13852907985017,34.18778458591383,60.0,0.0,0,,,,,,
139.1828616745969,3.1642155622420702,201.68743560881592,35.079937101254764,60.0,0.0,0,,,,,,
140.18257234786137,3.180877406796478,201.31216755250145,36.00654128651882,60.0,0.0,0,,,,,,
141.1822830211258,3.1975392513508853,201.01532943130655,36.961166113371945,60.0,0.0,0,,,,,,
142.18199369439026,3.2142010959052927,200.79898142842313,37.93718607827391,60.0,0.0,0,,,,,,
143.1817043676547,3.2308629404597,200.664625091285,38.92782718629926,60.0,0.0,0,,,,,,
144.1817043676547,3.2475296071263666,200.7086679438238,39.92685682907281,60.0,0.0,0,,,,,,
145.1817043676547,3.2641962737930332,200.7527107963626,40.92588647184636,60.0,0.0,0,,,,,,
146.1817043676547,3.2808629404597,200.79675364890142,41.92491611461991,60.0,0.0,0,,,,,,
147.1817043676547,3.2975296071263664,200.84079650144022,42.92394575739346,60.0,0.0,0,,,,,,
148.1817043676547,3.314196273793033,200.88483935397903,43.92297540016701,60.0,0.0,0,,,,,,
149.1817043676547,3.3308629404596997,200.92888220651784,44.92200504294056,60.0,0.0,0,,,,,,
150.1817043676547,3.3475296071263663,200.97292505905665,45.92103468571411,60.0,0.0,0,,,,,,
151.1817043676547,3.364196273793033,201.01696791159546,46.92006432848766,60.0,0.0,0,,,,,,
152.1817043676547,3.3808629404596995,201.06101076413427,47.91909397126121,60.0,0.0,0,,,,,,
153.1817043676547,3.397529607126366,201.10505361667308,48.91812361403476,60.0,0.0,0,,,,,,
154.1817043676547,3.4141962737930327,201.14909646921188,49.91715325680831,60.0,0.0,0,,,,,,
155.1817043676547,3.4308629404596993,201.1931393217507,50.91618289958186,60.0,0.0,0,,,,,,
156.1817043676547,3.447529607126366,201.2371821742895,51.91521254235541,60.0,0.0,0,,,,,,
157.1817043676547,3.4641962737930325,201.2812250268283,52.91424218512896,60.0,0.0,0,,,,,,
158.1817043676547,3.480862940459699,201.32526787936712,53.91327182790251,60.0,0.0,0,,,,,,
159.1817043676547,3.4975296071263657,201.36931073190593,54.91230147067606,60.0,0.0,0,,,,,,
160.1817043676547,3.5141962737930323,201.41335358444474,55.91133111344961,60.0,0.0,0,,,,,,
161.1817043676547,3.530862940459699,201.45739643698354,56.91036075622316,60.0,0.0,0,,,,,,
162.1817043676547,3.5475296071263656,201.50143928952235,57.90939039899671,60.0,0.0,0,,,,,,
163.1817043676547,3.564196273793032,201.54548214206116,58.90842004177026,60.0,0.0,0,,,,,,
164.1817043676547,3.5808629404596988,201.58952499459997,59.90744968454381,60.0,0.0,0,,,,,,
165.1817043676547,3.5975296071263654,201.63356784713878,60.90647932731736,60.0,0.0,0,,,,,,
166.1817043676547,3.614196273793032,201.6776106996776,61.905508970090914,60.0,0.0,0,,,,,,
167.1817043676547,3.6308629404596986,201.7216535522164,62.904538612864464,60.0,0.0,0,,,,,,
168.1817043676547,3.647529607126365,201.7656964047552,63.903568255638014,60.0,0.0,0,,,,,,
169.1817043676547,3.664196273793032,201.809739257294,64.90259789841156,60.0,0.0,0,,,,,,
170.1817043676547,3.6808629404596984,201.85378210983282,65.9016275411851,60.0,0.0,0,,,,,,
171.1817043676547,3.697529607126365,201.89782496237163,66.90065718395866,60.0,0.0,0,,,,,,
172.1817043676547,3.7141962737930316,201.94186781491044,67.89968682673221,60.0,0.0,0,,,,,,
173.1817043676547,3.7308629404596982,201.98591066744925,68.89871646950576,60.0,0.0,0,,,,,,
174.1817043676547,3.747529607126365,202.02995351998806,69.89774611227931,60.0,0.0,0,,,,,,
175.1817043676547,3.7641962737930315,202.07399637252686,70.89677575505286,60.0,0.0,0,,,,,,
176.1817043676547,3.780862940459698,202.11803922506567,71.89580539782641,60.0,0.0,0,,,,,,
177.1817043676547,3.7975296071263647,202.16208207760448,72.89483504059996,60.0,0.0,0,,,,,,
178.1817043676547,3.8141962737930313,202.2061249301433,73.89386468337351,60.0,0.0,0,,,,,,
179.1817043676547,3.830862940459698,202.2501677826821,74.89289432614706,60.0,0.0,0,,,,,,
180.1817043676547,3.8475296071263645,202.2942106352209,75.89192396892061,60.0,0.0,0,,,,,,
181.1817043676547,3.864196273793031,202.33825348775972,76.89095361169416,60.0,0.0,0,,,,,,
182.1817043676547,3.8808629404596977,202.38229634029852,77.88998325446771,60.0,0.0,0,,,,,,
183.1817043676547,3.8975296071263643,202.42633919283733,78.88901289724126,60.0,0.0,0,,,,,,
184.1817043676547,3.914196273793031,202.47038204537614,79.88804254001481,60.0,0.0,0,,,,,,
185.1817043676547,3.9308629404596975,202.51442489791495,80.88707218278836,60.0,0.0,0,,,,,,
186.1817043676547,3.947529607126364,202.55846775045376,81.88610182556191,60.0,0.0,0,,,,,,
187.1817043676547,3.9641962737930307,202.60251060299257,82.88513146833546,60.0,0.0,0,,,,,,
187.4379691738458,3.968467353896216,202.5,83.12,60.0,0.0,0,,,,,,
