Distance (in),Time (s),X (in),Y (in),Velocity (in/s),Orientation (deg),Touch,Way X (in),Way Y (in),Way Velocity (in/s),Way Orientation (deg),Way Turn Radius (in),Touch this Point
0.0,0.0,300.0,75.0,0.0,0.0,0,300.0,75.0,0.0,0.0,3.0,0.0
0.9999999999999922,0.16666666666666538,299.8854809246678,74.006578950603,12.0,0.0,0,294.62,28.33,60.0,0.0,3.0,0.0
1.9999999999999845,0.24999999999999806,299.77096184933555,73.013157901206,12.0,0.0,0,214.07,50.0,60.0,0.0,3.0,0.0
2.999999999999977,0.33333333333333076,299.6564427740033,72.019736851809,12.0,0.0,0,202.5,83.12,60.0,0.0,5.0,0.0
3.999999999999969,0.4166666666666634,299.5419236986711,71.026315802412,12.0,0.0,0,,,,,,
4.999999999999961,0.49999999999999606,299.4274046233389,70.032894753015,12.0,0.0,0,,,,,,
5.999999999999953,0.5833333333333287,299.31288554800665,69.039473703618,12.0,0.0,0,,,,,,
6.999999999999945,0.6666666666666614,299.1983664726744,68.046052654221,12.0,0.0,0,,,,,,
7.999999999999937,0.7499999999999941,299.0838473973422,67.052631604824,12.0,0.0,0,,,,,,
8.999999999999929,0.8333333333333268,298.96932832200997,66.059210555427,12.0,0.0,0,,,,,,
9.999999999999922,0.9140717328065052,298.85480924667775,65.06578950603,12.771360505658684,0.0,0,,,,,,
10.999999999999915,0.9886433457493056,298.7402901713455,64.072368456633,14.048496556224553,0.0,0,,,,,,
11.999999999999915,1.0567304706101237,298.6257710960133,63.078947407235994,15.325632606790432,0.0,0,,,,,,
12.999999999999915,1.1193706254820763,298.51125202068107,62.08552635783899,16.60276865735631,0.0,0,,,,,,
13.999999999999915,1.1773707688820325,298.39673294534884,61.09210530844198,17.87990470792219,0.0,0,,,,,,
14.999999999999915,1.2313709023923365,298.2822138700166,60.09868425904497,19.15704075848807,0.0,0,,,,,,
15.999999999999915,1.2818871563213305,298.1676947946844,59.105263209647966,20.434176809053948,0.0,0,,,,,,
16.999999999999915,1.3293418191031128,298.05317571935217,58.11184216025096,21.711312859619827,0.0,0,,,,,,
17.999999999999915,1.374084786868793,297.93865664401994,57.11842111085395,22.988448910185706,0.0,0,,,,,,
18.999999999999915,1.4164092158363286,297.8241375686877,56.125000061456944,24.265584960751585,0.0,0,,,,,,
19.999999999999915,1.4565631612670673,297.7096184933555,55.13157901205994,25.542721011317465,0.0,0,,,,,,
20.999999999999915,1.4947583776524043,297.59509941802327,54.13815796266293,26.819857061883344,0.0,0,,,,,,
21.999999999999915,1.5311770723454,297.48058034269104,53.14473691326592,28.096993112449223,0.0,0,,,,,,
22.999999999999915,1.5659771583853734,297.3660612673588,52.151315863868916,29.374129163015102,0.0,0,,,,,,
23.999999999999915,1.5992963897002417,297.2515421920266,51.15789481447191,30.65126521358098,0.0,0,,,,,,
24.999999999999915,1.6312556523900132,297.13702311669437,50.1644737650749,31.92840126414686,0.0,0,,,,,,
25.999999999999915,1.6619616106605781,297.02250404136214,49.171052715677895,33.205537314712736,0.0,0,,,,,,
26.999999999999915,1.6915088535247067,296.9079849660299,48.17763166628089,34.482673365278615,0.0,0,,,,,,
27.999999999999915,1.719981651193776,296.7934658906977,47.18421061688388,35.759809415844494,0.0,0,,,,,,
28.999999999999915,1.7474554033305971,296.67894681536546,46.190789567486874,37.03694546641037,0.0,0,,,,,,
29.999999999999915,1.7739978418356617,296.56442774003324,45.19736851808987,38.31408151697625,0.0,0,,,,,,
30.999999999999915,1.7996700364553142,296.449908664701,44.20394746869286,39.59121756754213,0.0,0,,,,,,
31.999999999999915,1.824527240769581,296.3353895893688,43.21052641929585,40.86835361810801,0.0,0,,,,,,
32.999999999999915,1.8486196080280242,296.22087051403656,42.217105369898846,42.14548966867389,0.0,0,,,,,,
33.999999999999915,1.8719928001444244,296.10635143870434,41.22368432050184,43.42262571923977,0.0,0,,,,,,
34.999999999999915,1.8946885084313636,295.9918323633721,40.23026327110483,44.69976176980565,0.0,0,,,,,,
35.999999999999915,1.9167449009919102,295.8773132880399,39.236842221707825,45.976897820371526,0.0,0,,,,,,
36.999999999999915,1.9381970088247706,295.76279421270766,38.24342117231082,47.254033870937405,0.0,0,,,,,,
37.999999999999915,1.9590770604487548,295.64827513737544,37.25000012291381,48.531169921503285,0.0,0,,,,,,
38.999999999999915,1.9794147730695186,295.5337560620432,36.256579073516804,49.808305972069164,0.0,0,,,,,,
39.999999999999915,1.9992376068897566,295.419236986711,35.2631580241198,51.08544202263504,0.0,0,,,,,,
40.999999999999915,2.0185709880230753,295.30471791137876,34.26973697472279,52.36257807320092,0.0,0,,,,,,
41.999999999999915,2.0374385045507717,295.19019883604653,33.27631592532578,53.6397141237668,0.0,0,,,,,,
42.999999999999915,2.0558620795131106,295.0756797607143,32.282894875928775,54.91685017433268,0.0,0,,,,,,
43.993985765482684,2.073755104456871,294.92116296454964,31.30099250721518,56.18630522918004,0.0,0,,,,,,
44.98936256164317,2.0912725832435264,294.4908426593417,30.40344061386279,57.45753681945336,0.0,0,,,,,,
45.98473935780365,2.108406733334573,293.79053427819093,29.696091239349254,58.72876840972667,0.0,0,,,,,,
46.98011615396416,2.12521684128488,292.89733204473714,29.256813722865733,59.69721661107057,0.0,0,,,,,,
47.98011615396414,2.141925667576961,291.93166653138917,29.51660232217363,60.0,0.0,0,,,,,,
48.98011615396412,2.158592334243627,290.9660010180412,29.776390921481525,60.0,0.0,0,,,,,,
49.9801161539641,2.1752590009102932,290.0003355046932,30.03617952078942,60.0,0.0,0,,,,,,
50.980116153964076,2.1919256675769594,289.03466999134525,30.295968120097317,60.0,0.0,0,,,,,,
51.980116153964055,2.2085923342436256,288.0690044779973,30.555756719405213,60.0,0.0,0,,,,,,
52.98011615396403,2.2252590009102917,287.1033389646493,30.81554531871311,60.0,0.0,0,,,,,,
53.98011615396401,2.241925667576958,286.13767345130134,31.075333918021006,60.0,0.0,0,,,,,,
54.98011615396399,2.258592334243624,285.17200793795337,31.3351225173289,60.0,0.0,0,,,,,,
55.98011615396397,2.27525900091029,284.2063424246054,31.594911116636798,60.0,0.0,0,,,,,,
56.98011615396395,2.2919256675769564,283.2406769112574,31.854699715944694,60.0,0.0,0,,,,,,
57.98011615396393,2.3085923342436225,282.27501139790945,32.114488315252586,60.0,0.0,0,,,,,,
58.980116153963905,2.3252590009102887,281.3093458845615,32.37427691456048,60.0,0.0,0,,,,,,
59.980116153963884,2.341925667576955,280.3436803712135,32.63406551386838,60.0,0.0,0,,,,,,
60.98011615396386,2.358592334243621,279.37801485786554,32.893854113176275,60.0,0.0,0,,,,,,
61.98011615396384,2.375259000910287,278.41234934451757,33.15364271248417,60.0,0.0,0,,,,,,
62.98011615396382,2.3919256675769534,277.4466838311696,33.41343131179207,60.0,0.0,0,,,,,,
63.9801161539638,2.4085923342436195,276.4810183178216,33.67321991109996,60.0,0.0,0,,,,,,
64.98011615396378,2.4252590009102857,275.51535280447365,33.93300851040786,60.0,0.0,0,,,,,,
65.98011615396376,2.4419256675769523,274.5496872911257,34.192797109715755,60.0,0.0,0,,,,,,
66.98011615396375,2.458592334243619,273.5840217777777,34.45258570902365,60.0,0.0,0,,,,,,
67.98011615396373,2.4752590009102855,272.61835626442974,34.71237430833155,60.0,0.0,0,,,,,,
68.98011615396372,2.491925667576952,271.65269075108176,34.972162907639444,60.0,0.0,0,,,,,,
69.9801161539637,2.5085923342436187,270.6870252377338,35.23195150694734,60.0,0.0,0,,,,,,
70.98011615396369,2.5252590009102853,269.7213597243858,35.491740106255236,60.0,0.0,0,,,,,,
71.98011615396368,2.541925667576952,268.75569421103785,35.75152870556313,60.0,0.0,0,,,,,,
72.98011615396366,2.5585923342436185,267.7900286976899,36.01131730487103,60.0,0.0,0,,,,,,
73.98011615396365,2.575259000910285,266.8243631843419,36.271105904178924,60.0,0.0,0,,,,,,
74.98011615396364,2.5919256675769518,265.85869767099393,36.53089450348682,60.0,0.0,0,,,,,,
75.98011615396362,2.6085923342436184,264.89303215764596,36.790683102794716,60.0,0.0,0,,,,,,
76.9801161539636,2.625259000910285,263.927366644298,37.05047170210261,60.0,0.0,0,,,,,,
77.98011615396359,2.6419256675769516,262.96170113095,37.31026030141051,60.0,0.0,0,,,,,,
78.98011615396358,2.658592334243618,261.99603561760205,37.570048900718405,60.0,0.0,0,,,,,,
79.98011615396356,2.675259000910285,261.0303701042541,37.8298375000263,60.0,0.0,0,,,,,,
80.98011615396355,2.6919256675769514,260.0647045909061,38.0896260993342,60.0,0.0,0,,,,,,
81.98011615396354,2.708592334243618,259.09903907755813,38.34941469864209,60.0,0.0,0,,,,,,
82.98011615396352,2.7252590009102846,258.13337356421016,38.60920329794999,60.0,0.0,0,,,,,,
83.98011615396351,2.741925667576951,257.1677080508622,38.868991897257885,60.0,0.0,0,,,,,,
84.9801161539635,2.758592334243618,256.2020425375142,39.12878049656578,60.0,0.0,0,,,,,,
85.98011615396351,2.775259000910285,255.23637702416622,39.38856909587368,60.0,0.0,0,,,,,,
86.98011615396352,2.791925667576952,254.27071151081822,39.64835769518157,60.0,0.0,0,,,,,,
87.98011615396354,2.808592334243619,253.30504599747022,39.90814629448947,60.0,0.0,0,,,,,,
88.98011615396355,2.825259000910286,252.33938048412222,40.167934893797366,60.0,0.0,0,,,,,,
89.98011615396356,2.841925667576953,251.37371497077422,40.42772349310526,60.0,0.0,0,,,,,,
90.98011615396358,2.85859233424362,250.40804945742622,40.68751209241316,60.0,0.0,0,,,,,,
91.98011615396359,2.875259000910287,249.44238394407822,40.947300691721054,60.0,0.0,0,,,,,,
92.9801161539636,2.8919256675769542,248.47671843073022,41.20708929102895,60.0,0.0,0,,,,,,
93.98011615396362,2.9085923342436213,247.51105291738222,41.466877890336846,60.0,0.0,0,,,,,,
94.98011615396364,2.9252590009102883,246.54538740403422,41.72666648964474,60.0,0.0,0,,,,,,
95.98011615396365,2.9419256675769554,245.57972189068622,41.98645508895264,60.0,0.0,0,,,,,,
96.98011615396366,2.9585923342436224,244.61405637733822,42.246243688260535,60.0,0.0,0,,,,,,
97.98011615396368,2.9752590009102895,243.64839086399022,42.50603228756843,60.0,0.0,0,,,,,,
98.98011615396369,2.9919256675769565,242.68272535064222,42.76582088687633,60.0,0.0,0,,,,,,
99.9801161539637,3.0085923342436236,241.71705983729422,43.02560948618422,60.0,0.0,0,,,,,,
100.98011615396372,3.0252590009102907,240.75139432394622,43.28539808549212,60.0,0.0,0,,,,,,
101.98011615396373,3.0419256675769577,239.78572881059821,43.545186684800015,60.0,0.0,0,,,,,,
102.98011615396375,3.0585923342436248,238.82006329725021,43.80497528410791,60.0,0.0,0,,,,,,
103.98011615396376,3.075259000910292,237.85439778390221,44.06476388341581,60.0,0.0,0,,,,,,
104.98011615396378,3.091925667576959,236.88873227055421,44.3245524827237,60.0,0.0,0,,,,,,
105.98011615396379,3.108592334243626,235.92306675720621,44.5843410820316,60.0,0.0,0,,,,,,
106.9801161539638,3.125259000910293,234.95740124385821,44.844129681339496,60.0,0.0,0,,,,,,
107.98011615396382,3.14192566757696,233.99173573051021,45.10391828064739,60.0,0.0,0,,,,,,
108.98011615396383,3.158592334243627,233.02607021716221,45.36370687995529,60.0,0.0,0,,,,,,
109.98011615396385,3.175259000910294,232.0604047038142,45.623495479263184,60.0,0.0,0,,,,,,
110.98011615396386,3.191925667576961,231.0947391904662,45.88328407857108,60.0,0.0,0,,,,,,
111.98011615396388,3.208592334243628,230.1290736771182,46.143072677878976,60.0,0.0,0,,,,,,
112.98011615396389,3.2252590009102953,229.1634081637702,46.40286127718687,60.0,0.0,0,,,,,,
113.9801161539639,3.2419256675769623,228.1977426504222,46.66264987649477,60.0,0.0,0,,,,,,
114.98011615396392,3.2585923342436294,227.2320771370742,46.922438475802664,60.0,0.0,0,,,,,,
115.98011615396393,3.2752590009102964,226.2664116237262,47.18222707511056,60.0,0.0,0,,,,,,
116.98011615396395,3.2919256675769635,225.3007461103782,47.44201567441846,60.0,0.0,0,,,,,,
117.98011615396396,3.3085923342436305,224.3350805970302,47.70180427372635,60.0,0.0,0,,,,,,
118.98011615396398,3.3252590009102976,223.3694150836822,47.96159287303425,60.0,0.0,0,,,,,,
119.98011615396399,3.3419256675769646,222.4037495703342,48.221381472342145,60.0,0.0,0,,,,,,
120.980116153964,3.3585923342436317,221.4380840569862,48.48117007165004,60.0,0.0,0,,,,,,
121.98011615396402,3.3752590009102987,220.4724185436382,48.74095867095794,60.0,0.0,0,,,,,,
122.98011615396403,3.391925667576966,219.5067530302902,49.00074727026583,60.0,0.0,0,,,,,,
123.98011615396405,3.408592334243633,218.5410875169422,49.26053586957373,60.0,0.0,0,,,,,,
124.98011615396406,3.4252590009103,217.5754220035942,49.520324468881626,60.0,0.0,0,,,,,,
125.98011615396408,3.441925667576967,216.6097564902462,49.78011306818952,60.0,0.0,0,,,,,,
127.08710988975663,3.4603755631735096,215.51553298203294,49.61245256253183,60.0,0.0,0,,,,,,
128.08248668591713,3.4769651764428513,214.62310103891812,50.053292888775964,60.0,0.0,0,,,,,,
129.08248668591713,3.493631843109518,214.2933093257955,50.997346608622266,60.0,0.0,0,,,,,,
130.08248668591713,3.5102985097761845,213.96351761267286,51.94140032846857,60.0,0.0,0,,,,,,
131.08248668591713,3.526965176442851,213.63372589955023,52.88545404831487,60.0,0.0,0,,,,,,
132.08248668591713,3.5436318431095177,213.3039341864276,53.82950776816117,60.0,0.0,0,,,,,,
133.08248668591713,3.5602985097761843,212.97414247330497,54.77356148800747,60.0,0.0,0,,,,,,
134.08248668591713,3.576965176442851,212.64435076018233,55.717615207853775,60.0,0.0,0,,,,,,
135.08248668591713,3.5936318431095176,212.3145590470597,56.66166892770008,60.0,0.0,0,,,,,,
136.08248668591713,3.610298509776184,211.98476733393707,57.60572264754638,60.0,0.0,0,,,,,,
137.08248668591713,3.6269651764428508,211.65497562081444,58.54977636739268,60.0,0.0,0,,,,,,
138.08248668591713,3.6436318431095174,211.3251839076918,59.49383008723898,60.0,0.0,0,,,,,,
139.08248668591713,3.660298509776184,210.99539219456918,60.437883807085285,60.0,0.0,0,,,,,,
140.08248668591713,3.6769651764428506,210.66560048144655,61.38193752693159,60.0,0.0,0,,,,,,
141.08248668591713,3.693631843109517,210.33580876832391,62.32599124677789,60.0,0.0,0,,,,,,
142.08248668591713,3.710298509776184,210.00601705520128,63.27004496662419,60.0,0.0,0,,,,,,
143.08248668591713,3.7269651764428504,209.67622534207865,64.21409868647049,60.0,0.0,0,,,,,,
144.08248668591713,3.743631843109517,209.34643362895602,65.15815240631679,60.0,0.0,0,,,,,,
145.08248668591713,3.7602985097761836,209.0166419158334,66.10220612616308,60.0,0.0,0,,,,,,
146.08248668591713,3.7769651764428502,208.68685020271076,67.04625984600938,60.0,0.0,0,,,,,,
147.08248668591713,3.793631843109517,208.35705848958813,67.99031356585567,60.0,0.0,0,,,,,,
148.08248668591713,3.8102985097761835,208.0272667764655,68.93436728570197,60.0,0.0,0,,,,,,
149.08248668591713,3.82696517644285,207.69747506334286,69.87842100554826,60.0,0.0,0,,,,,,
150.08248668591713,3.8436318431095167,207.36768335022023,70.82247472539456,60.0,0.0,0,,,,,,
151.08248668591713,3.8602985097761833,207.0378916370976,71.76652844524085,60.0,0.0,0,,,,,,
152.08248668591713,3.87696517644285,206.70809992397497,72.71058216508715,60.0,0.0,0,,,,,,
153.08248668591713,3.8936318431095165,206.37830821085234,73.65463588493344,60.0,0.0,0,,,,,,
154.08248668591713,3.910298509776183,206.0485164977297,74.59868960477974,60.0,0.0,0,,,,,,
155.08248668591713,3.9269651764428497,205.71872478460708,75.54274332462603,60.0,0.0,0,,,,,,
156.08248668591713,3.9436318431095163,205.38893307148444,76.48679704447233,60.0,0.0,0,,,,,,
157.08248668591713,3.960298509776183,205.0591413583618,77.43085076431862,60.0,0.0,0,,,,,,
158.08248668591713,3.9769651764428495,204.72934964523918,78.37490448416492,60.0,0.0,0,,,,,,
159.08248668591713,3.993631843109516,204.39955793211655,79.31895820401121,60.0,0.0,0,,,,,,
160.08248668591713,4.010298509776183,204.06976621899392,80.2630119238575,60.0,0.0,0,,,,,,
161.08248668591713,4.026965176442849,203.7399745058713,81.2070656437038,60.0,0.0,0,,,,,,
162.08248668591713,4.043631843109516,203.41018279274866,82.1511193635501,60.0,0.0,0,,,,,,
163.08248668591713,4.060298509776183,203.08039107962603,83.09517308339639,60.0,0.0,0,,,,,,
163.6634085232563,4.069980540398502,202.5,83.12,60.0,0.0,0,,,,,,
