Distance (in),Time (s),X (in),Y (in),Velocity (in/s),Orientation (deg),Touch,Way X (in),Way Y (in),Way Velocity (in/s),Way Orientation (deg),Way Turn Radius (in),Touch this Point
0.0,0.0,242.0,207.0,24.0,45.0,0,242.0,207.0,24.0,45.0,3.0,0.0
0.999999999999987,0.040646826699673205,241.18807877486395,207.5837670118922,25.204333090436652,45.0,0,217.73,224.45,60.0,45.0,3.0,0.0
1.999999999999974,0.07939675459064371,240.3761575497279,208.1675340237844,26.408666180873304,45.0,0,186.0,249.0,24.0,45.0,3.0,0
2.999999999999961,0.11641893788061011,239.56423632459186,208.75130103567662,27.612999271309956,45.0,0,,,,,,
3.999999999999948,0.15186087029747342,238.7523150994558,209.33506804756883,28.817332361746608,45.0,0,,,,,,
4.999999999999935,0.18585193191148486,237.94039387431977,209.91883505946103,30.02166545218326,45.0,0,,,,,,
5.999999999999922,0.21850623853401452,237.12847264918372,210.50260207135324,31.225998542619912,45.0,0,,,,,,
6.9999999999999085,0.2499249520300713,236.31655142404767,211.08636908324544,32.43033163305657,45.0,0,,,,,,
7.999999999999895,0.28019816947196846,235.50463019891163,211.67013609513765,33.63466472349322,45.0,0,,,,,,
8.999999999999883,0.30940648002358984,234.69270897377558,212.25390310702986,34.83899781392988,45.0,0,,,,,,
9.99999999999987,0.33762225730072276,233.88078774863953,212.83767011892206,36.043330904366535,45.0,0,,,,,,
10.999999999999858,0.36491073936801466,233.0688665235035,213.42143713081427,37.24766399480319,45.0,0,,,,,,
11.999999999999845,0.39133093691533555,232.25694529836744,214.00520414270648,38.451997085239846,45.0,0,,,,,,
12.999999999999833,0.4169364014046606,231.4450240732314,214.58897115459868,39.6563301756765,45.0,0,,,,,,
13.99999999999982,0.4417758783213675,230.63310284809535,215.1727381664909,40.86066326611316,45.0,0,,,,,,
14.999999999999808,0.46589386555355333,229.8211816229593,215.7565051783831,42.06499635654981,45.0,0,,,,,,
15.999999999999796,0.4893310929666408,229.00926039782325,216.3402721902753,43.26932944698647,45.0,0,,,,,,
16.999999999999783,0.5121249361530612,228.1973391726872,216.9240392021675,44.473662537423124,45.0,0,,,,,,
17.99999999999977,0.5343097749092514,227.38541794755116,217.5078062140597,45.67799562785977,45.0,0,,,,,,
18.999999999999755,0.5559173050700187,226.57349672241511,218.09157322595192,46.88232871829642,45.0,0,,,,,,
19.99999999999974,0.5769768107981621,225.76157549727907,218.67534023784413,48.08666180873307,45.0,0,,,,,,
20.999999999999726,0.5975154031982569,224.94965427214302,219.25910724973633,49.29099489916972,45.0,0,,,,,,
21.999999999999712,0.617558230131856,224.13773304700698,219.84287426162854,50.495327989606366,45.0,0,,,,,,
22.999999999999698,0.6371286613066849,223.32581182187093,220.42664127352074,51.699661080043015,45.0,0,,,,,,
23.999999999999684,0.6562484520559664,222.51389059673488,221.01040828541295,52.90399417047966,45.0,0,,,,,,
24.99999999999967,0.6749378886857674,221.70196937159884,221.59417529730516,54.10832726091631,45.0,0,,,,,,
25.999999999999655,0.6932159178248108,220.8900481464628,222.17794230919736,55.31266035135296,45.0,0,,,,,,
26.99999999999964,0.7111002618441483,220.07812692132674,222.76170932108957,56.51699344178961,45.0,0,,,,,,
27.999999999999627,0.7286075221089604,219.2662056961907,223.34547633298178,57.72132653222626,45.0,0,,,,,,
28.999999999999613,0.7457532715700248,218.45428447105465,223.92924334487398,58.925659622662906,45.0,0,,,,,,
29.892062491571227,0.7609924703512391,217.73,224.45,58.14906384262571,45.0,0,,,,,,
30.89206249157122,0.7783193540080976,216.93909339540403,225.06193687812262,57.278501760513045,45.0,0,,,,,,
31.892062491571213,0.7959116013745052,216.14818679080807,225.67387375624526,56.40793967840038,45.0,0,,,,,,
32.89206249157121,0.8137774670372239,215.3572801862121,226.2858106343679,55.53737759628772,45.0,0,,,,,,
33.8920624915712,0.8319255968274878,214.56637358161615,226.89774751249053,54.666815514175056,45.0,0,,,,,,
34.892062491571195,0.8503650529431113,213.7754669770202,227.50968439061316,53.79625343206239,45.0,0,,,,,,
35.89206249157119,0.8691053411198788,212.98456037242423,228.1216212687358,52.92569134994973,45.0,0,,,,,,
36.89206249157118,0.8881564400561461,212.19365376782827,228.73355814685843,52.05512926783707,45.0,0,,,,,,
37.892062491571174,0.9075288333186506,211.4027471632323,229.34549502498106,51.184567185724404,45.0,0,,,,,,
38.89206249157117,0.9272335439849121,210.61184055863635,229.9574319031037,50.31400510361174,45.0,0,,,,,,
39.89206249157116,0.9472821723088011,209.82093395404038,230.56936878122633,49.44344302149908,45.0,0,,,,,,
40.89206249157115,0.9676869367314916,209.03002734944442,231.18130565934896,48.572880939386415,45.0,0,,,,,,
41.892062491571146,0.9884607186008009,208.23912074484846,231.7932425374716,47.70231885727375,45.0,0,,,,,,
42.89206249157114,1.009617111008723,207.4482141402525,232.40517941559423,46.83175677516109,45.0,0,,,,,,
43.89206249157113,1.031170472210788,206.65730753565654,233.01711629371687,45.96119469304843,45.0,0,,,,,,
44.892062491571124,1.053135984152935,205.86640093106058,233.6290531718395,45.090632610935764,45.0,0,,,,,,
45.89206249157112,1.0755297167033357,205.07549432646462,234.24099004996214,44.2200705288231,45.0,0,,,,,,
46.89206249157111,1.09836869826974,204.28458772186866,234.85292692808477,43.34950844671044,45.0,0,,,,,,
47.8920624915711,1.1216709935795757,203.4936811172727,235.4648638062074,42.478946364597775,45.0,0,,,,,,
48.892062491571096,1.1454557895126758,202.70277451267674,236.07680068433004,41.60838428248511,45.0,0,,,,,,
49.89206249157109,1.1697434900082213,201.91186790808078,236.68873756245267,40.73782220037245,45.0,0,,,,,,
50.89206249157108,1.1945558212219527,201.12096130348482,237.3006744405753,39.867260118259786,45.0,0,,,,,,
51.892062491571075,1.219915948291459,200.33005469888886,237.91261131869794,38.99669803614712,45.0,0,,,,,,
52.89206249157107,1.2458486052819244,199.5391480942929,238.52454819682058,38.12613595403446,45.0,0,,,,,,
53.89206249157106,1.2723802401389428,198.74824148969694,239.1364850749432,37.2555738719218,45.0,0,,,,,,
54.89206249157105,1.2995391767773206,197.95733488510098,239.74842195306584,36.385011789809134,45.0,0,,,,,,
55.892062491571046,1.327355796795669,197.16642828050502,240.36035883118848,35.51444970769647,45.0,0,,,,,,
56.89206249157104,1.355862743739112,196.37552167590906,240.9722957093111,34.64388762558381,45.0,0,,,,,,
57.89206249157103,1.3850951533530216,195.5846150713131,241.58423258743375,33.773325543471145,45.0,0,,,,,,
58.892062491571025,1.4150909139000314,194.79370846671713,242.19616946555638,32.90276346135848,45.0,0,,,,,,
59.89206249157102,1.4458909613769089,194.00280186212117,242.80810634367901,32.03220137924582,45.0,0,,,,,,
60.89206249157101,1.4775396154006792,193.2118952575252,243.42004322180165,31.161639297133156,45.0,0,,,,,,
61.892062491571004,1.510084962677629,192.42098865292925,244.03198009992428,30.291077215020493,45.0,0,,,,,,
62.892062491571,1.5435792963799753,191.6300820483333,244.64391697804692,29.42051513290783,45.0,0,,,,,,
63.89206249157099,1.5780796215052126,190.83917544373733,245.25585385616955,28.549953050795168,45.0,0,,,,,,
64.89206249157098,1.6136482384769346,190.04826883914137,245.86779073429219,27.679390968682505,45.0,0,,,,,,
65.89206249157098,1.6503534199879657,189.2573622345454,246.47972761241482,26.808828886569838,45.0,0,,,,,,
66.89206249157098,1.688270199552764,188.46645562994945,247.09166449053745,25.93826680445717,45.0,0,,,,,,
67.89206249157098,1.7274812946487388,187.6755490253535,247.7036013686601,25.067704722344505,45.0,0,,,,,,
68.89206249157098,1.7680781929864222,186.88464242075753,248.31553824678272,24.19714264023184,45.0,0,,,,,,
69.89206249157098,1.8095744288717945,186.09373581616157,248.92747512490536,24.0,45.0,0,,,,,,
70.01057941331202,1.8145126339443376,186.0,249.0,24.0,45.0,0,,,,,,
